# Matter power spectrum P(k) at redshift z=3
# for k=1.0473e-05 to 1.4771 h/Mpc,
# number of wavenumbers equal to 615
#    1:k (h/Mpc)              2:P (Mpc/h)^3        
       1.047303135938e-05       4.728008221454e+00 
       2.336426367330e-05       1.027446340839e+01 
       3.630094222126e-05       1.573479634572e+01 
       4.931793007333e-05       2.116348731093e+01 
       6.245066819747e-05       2.659224271504e+01 
       7.573549197945e-05       3.204524947438e+01 
       8.920995788377e-05       3.754346888542e+01 
       1.029131846064e-04       4.310640605845e+01 
       1.168862131034e-04       4.875302524058e+01 
       1.311723899134e-04       5.450231133753e+01 
       1.458177781973e-04       6.037366615634e+01 
       1.608716008579e-04       6.638722219654e+01 
       1.763867199213e-04       7.256411471254e+01 
       1.924201559870e-04       7.892673379529e+01 
       2.090336508873e-04       8.549896873396e+01 
       2.262942756064e-04       9.230645157985e+01 
       2.442750838238e-04       9.937680338775e+01 
       2.630558089453e-04       1.067398839184e+02 
       2.827235988902e-04       1.144280430839e+02 
       3.033737778854e-04       1.224763696682e+02 
       3.251106176889e-04       1.309229296181e+02 
       3.480480916251e-04       1.398089822933e+02 
       3.723105731783e-04       1.491791582068e+02 
       3.980334264062e-04       1.590815760746e+02 
       4.253634181374e-04       1.696171969127e+02 
       4.544588623439e-04       1.807452813059e+02 
       4.854893866282e-04       1.925705994636e+02 
       5.186351920315e-04       2.051540192482e+02 
       5.540856645325e-04       2.185583212639e+02 
       5.920371956255e-04       2.328471290933e+02 
       6.326900877099e-04       2.480834851845e+02 
       6.762444656946e-04       2.643280577945e+02 
       7.228951956237e-04       2.816370004838e+02 
       7.728259258914e-04       3.000656393133e+02 
       8.262025097030e-04       3.196422105956e+02 
       8.831662202127e-04       3.404106394015e+02 
       9.438273018440e-04       3.623527831572e+02 
       1.008259475486e-03       3.855436372844e+02 
       1.076495997995e-03       4.098838769136e+02 
       1.148527751090e-03       4.353547856366e+02 
       1.224303612355e-03       4.619064154266e+02 
       1.303733081872e-03       4.895040782274e+02 
       1.386690861452e-03       5.180025460003e+02 
       1.473022868691e-03       5.473365751653e+02 
       1.477104874446e-03       5.487155678427e+02 
       1.562553055260e-03       5.774383164559e+02 
       1.655090397648e-03       6.082085560078e+02 
       1.750435520044e-03       6.395367784198e+02 
       1.848386556576e-03       6.713133980393e+02 
       1.948744024031e-03       7.034512253165e+02 
       2.051314624672e-03       7.358770253249e+02 
       2.155914013491e-03       7.684737744036e+02 
       2.262368639316e-03       8.012159712630e+02 
       2.370516808183e-03       8.340060602655e+02 
       2.480209128279e-03       8.667924155103e+02 
       2.591308487870e-03       8.994949380350e+02 
       2.703689699163e-03       9.320717649163e+02 
       2.817238918112e-03       9.644798858592e+02 
       2.931852927047e-03       9.966852011411e+02 
       3.047438345849e-03       1.028664628620e+03 
       3.163910819513e-03       1.060372132505e+03 
       3.281194215401e-03       1.091793702287e+03 
       3.399219852244e-03       1.122893408412e+03 
       3.517925774485e-03       1.153662589234e+03 
       3.637256079370e-03       1.184078633882e+03 
       3.757160299868e-03       1.214131150937e+03 
       3.877592843520e-03       1.243793017435e+03 
       3.998512485372e-03       1.273082540816e+03 
       4.119881911979e-03       1.301979933063e+03 
       4.241667312805e-03       1.330464864157e+03 
       4.363838015039e-03       1.358541357482e+03 
       4.486366157839e-03       1.386206657512e+03 
       4.609226402100e-03       1.413455301019e+03 
       4.732395672061e-03       1.440309188427e+03 
       4.855852925361e-03       1.467175800239e+03 
       4.979578948395e-03       1.487578503801e+03 
       5.103556174161e-03       1.519646535337e+03 
       5.227768520041e-03       1.533223945622e+03 
       5.352201243251e-03       1.562321227662e+03 
       5.476840811938e-03       1.584228339027e+03 
       5.601674790120e-03       1.611305684793e+03 
       5.726691734888e-03       1.636940169717e+03 
       5.851881104471e-03       1.654520962385e+03 
       5.977233175915e-03       1.678904020697e+03 
       6.102738971291e-03       1.699934025576e+03 
       6.228390191473e-03       1.723056734180e+03 
       6.354179156635e-03       1.745458249462e+03 
       6.480098752712e-03       1.763806887820e+03 
       6.606142383182e-03       1.785158563541e+03 
       6.732303925580e-03       1.806111329036e+03 
       6.858577692226e-03       1.825251696748e+03 
       6.984958394722e-03       1.845180292588e+03 
       7.111441111816e-03       1.864560444447e+03 
       7.238021260273e-03       1.882119565216e+03 
       7.364694568453e-03       1.900656437591e+03 
       7.491457052295e-03       1.918869939247e+03 
       7.618304993488e-03       1.936619549312e+03 
       7.745234919581e-03       1.953506089164e+03 
       7.872243585869e-03       1.970480291962e+03 
       7.999327958841e-03       1.987083834930e+03 
       8.126485201081e-03       2.002699319007e+03 
       8.253712657443e-03       2.018567922184e+03 
       8.381007842403e-03       2.034085454195e+03 
       8.508368428467e-03       2.049233706787e+03 
       8.635792235538e-03       2.063864889592e+03 
       8.763277221148e-03       2.078325886569e+03 
       8.890821471493e-03       2.092463525626e+03 
       9.018423193174e-03       2.106252278991e+03 
       9.146080705598e-03       2.119484860471e+03 
       9.273792433982e-03       2.132624111978e+03 
       9.401556902889e-03       2.145461109316e+03 
       9.529372730275e-03       2.157971886794e+03 
       9.657238621981e-03       2.170096420500e+03 
       9.785153366650e-03       2.181993445280e+03 
       9.913115831018e-03       2.193582210623e+03 
       1.004112495556e-02       2.204869536628e+03 
       1.016917975046e-02       2.215780796049e+03 
       1.029727929186e-02       2.226482646264e+03 
       1.042542271843e-02       2.236895431500e+03 
       1.055360922810e-02       2.247022993902e+03 
       1.068183807512e-02       2.256868869673e+03 
       1.081010856728e-02       2.266413911655e+03 
       1.093842006331e-02       2.275705137848e+03 
       1.106677197052e-02       2.284724635522e+03 
       1.119516374258e-02       2.293474838366e+03 
       1.132359487743e-02       2.301959956441e+03 
       1.145206491534e-02       2.310171746171e+03 
       1.158057343718e-02       2.318137011768e+03 
       1.170912006273e-02       2.325846176802e+03 
       1.183770444911e-02       2.333302568033e+03 
       1.196632628936e-02       2.340509271419e+03 
       1.209498531111e-02       2.347472892356e+03 
       1.222368127533e-02       2.354190167484e+03 
       1.235241397517e-02       2.360666707072e+03 
       1.248118323488e-02       2.366905523124e+03 
       1.260998890883e-02       2.372909366070e+03 
       1.273883088055e-02       2.378681374208e+03 
       1.286770906193e-02       2.384245566190e+03 
       1.299662339235e-02       2.389564879542e+03 
       1.312557383801e-02       2.394661151720e+03 
       1.325456039120e-02       2.399536768773e+03 
       1.338358306970e-02       2.404194660549e+03 
       1.351264191621e-02       2.408637919567e+03 
       1.364173699777e-02       2.412882998140e+03 
       1.377086840533e-02       2.416904684011e+03 
       1.390003625328e-02       2.420718632563e+03 
       1.402924067902e-02       2.424327458372e+03 
       1.415848184263e-02       2.427736255479e+03 
       1.428775992652e-02       2.430943247583e+03 
       1.441707513513e-02       2.433987432770e+03 
       1.454642769467e-02       2.436804960708e+03 
       1.467581785287e-02       2.439431045463e+03 
       1.477104874446e-02       2.441241837796e+03 
       1.480524587878e-02       2.441867078945e+03 
       1.493471206261e-02       2.444115515555e+03 
       1.506421671556e-02       2.446179460062e+03 
       1.519376016968e-02       2.448059182302e+03 
       1.532334277780e-02       2.449777801374e+03 
       1.545296491345e-02       2.451300280362e+03 
       1.558262697078e-02       2.452647876515e+03 
       1.571232936457e-02       2.453821104383e+03 
       1.584207253017e-02       2.454823893449e+03 
       1.597185692356e-02       2.455655705729e+03 
       1.610168302136e-02       2.456321241932e+03 
       1.623155132088e-02       2.456862147329e+03 
       1.636146234020e-02       2.457203034637e+03 
       1.649141661826e-02       2.457382111121e+03 
       1.662141471495e-02       2.457404967258e+03 
       1.675145721127e-02       2.457269768361e+03 
       1.688154470947e-02       2.456982312162e+03 
       1.701167783317e-02       2.456543281240e+03 
       1.714185722759e-02       2.455952412740e+03 
       1.727208355975e-02       2.455235931856e+03 
       1.740235751862e-02       2.454354887390e+03 
       1.753267981543e-02       2.453330548499e+03 
       1.766305118389e-02       2.452163186601e+03 
       1.779347238041e-02       2.450856960101e+03 
       1.792394418445e-02       2.449415070134e+03 
       1.805446739880e-02       2.447836462315e+03 
       1.818504284984e-02       2.446124202643e+03 
       1.831567138796e-02       2.444324189181e+03 
       1.844635388784e-02       2.442354695863e+03 
       1.857709124883e-02       2.440256614963e+03 
       1.870788439536e-02       2.438033794003e+03 
       1.883873427730e-02       2.435688667552e+03 
       1.896964187040e-02       2.433220442011e+03 
       1.910060817673e-02       2.430634206356e+03 
       1.923163422509e-02       2.427930271044e+03 
       1.936272107154e-02       2.425109521212e+03 
       1.949386979982e-02       2.422197954564e+03 
       1.962508152192e-02       2.419154212319e+03 
       1.975635737854e-02       2.415998238403e+03 
       1.988769853970e-02       2.412735867888e+03 
       2.001910620523e-02       2.409367275895e+03 
       2.015058160542e-02       2.405892001119e+03 
       2.028212600157e-02       2.402316757648e+03 
       2.041374068663e-02       2.398637382291e+03 
       2.054542698587e-02       2.394861358057e+03 
       2.067718625749e-02       2.391029216787e+03 
       2.080901989334e-02       2.387059260522e+03 
       2.094092931965e-02       2.382996457157e+03 
       2.107291599771e-02       2.378840321893e+03 
       2.120498142465e-02       2.374594079793e+03 
       2.133712713424e-02       2.370259316963e+03 
       2.146935469765e-02       2.365834616520e+03 
       2.160166572434e-02       2.361326245828e+03 
       2.173406186285e-02       2.356733570326e+03 
       2.186654480172e-02       2.352054976502e+03 
       2.199911627040e-02       2.347319163375e+03 
       2.213177804019e-02       2.342480810618e+03 
       2.226453192519e-02       2.337566941408e+03 
       2.239737978331e-02       2.332574235045e+03 
       2.253032351732e-02       2.327507714684e+03 
       2.266336507587e-02       2.322366588964e+03 
       2.279650645464e-02       2.317154181378e+03 
       2.292974969740e-02       2.311869271383e+03 
       2.306309689724e-02       2.306516529809e+03 
       2.319655019776e-02       2.301096297386e+03 
       2.333011179426e-02       2.295606070893e+03 
       2.346378393509e-02       2.290095792224e+03 
       2.359756892290e-02       2.284480400711e+03 
       2.373146911607e-02       2.278802122445e+03 
       2.386548693005e-02       2.273062454469e+03 
       2.399962483886e-02       2.267264640754e+03 
       2.413388537655e-02       2.261406534564e+03 
       2.426827113876e-02       2.255493454530e+03 
       2.440278478431e-02       2.249525060564e+03 
       2.453742903683e-02       2.243499908102e+03 
       2.467220668648e-02       2.237424441882e+03 
       2.480712059171e-02       2.231295018380e+03 
       2.494217368103e-02       2.225136764879e+03 
       2.507736895491e-02       2.218909045937e+03 
       2.521270948771e-02       2.212634557708e+03 
       2.534819842966e-02       2.206312010479e+03 
       2.548383900896e-02       2.199944708396e+03 
       2.561963453386e-02       2.193533387026e+03 
       2.575558839491e-02       2.187079713249e+03 
       2.589170406720e-02       2.180582133713e+03 
       2.602798511275e-02       2.174046509212e+03 
       2.616443518295e-02       2.167468637631e+03 
       2.630105802104e-02       2.160854566911e+03 
       2.643785746476e-02       2.154240897885e+03 
       2.657483744905e-02       2.147554565057e+03 
       2.671200200881e-02       2.140831847866e+03 
       2.684935528185e-02       2.134076035785e+03 
       2.698690151185e-02       2.127287357909e+03 
       2.712464505147e-02       2.120465078046e+03 
       2.726259036560e-02       2.113613910243e+03 
       2.740074203465e-02       2.106732521871e+03 
       2.753910475804e-02       2.099821167059e+03 
       2.767768335781e-02       2.092882204104e+03 
       2.781648278227e-02       2.085917167985e+03 
       2.795550810992e-02       2.078924911337e+03 
       2.809476455345e-02       2.071908226996e+03 
       2.823425746386e-02       2.064885140165e+03 
       2.837399233481e-02       2.057821888043e+03 
       2.851397480712e-02       2.050734813460e+03 
       2.865421067336e-02       2.043626536717e+03 
       2.879470588276e-02       2.036498150342e+03 
       2.893546654621e-02       2.029350395332e+03 
       2.907649894150e-02       2.022181533472e+03 
       2.921780951876e-02       2.014996063390e+03 
       2.935940490610e-02       2.007792634971e+03 
       2.950129191554e-02       2.000571523648e+03 
       2.964347754913e-02       1.993336888649e+03 
       2.978596900532e-02       1.986084934631e+03 
       2.992877368565e-02       1.978820682808e+03 
       3.007189920166e-02       1.971578007910e+03 
       3.021535338211e-02       1.964286717579e+03 
       3.035914428056e-02       1.956983959310e+03 
       3.050328018320e-02       1.949669994421e+03 
       3.064776961709e-02       1.942344071973e+03 
       3.079262135870e-02       1.935008512174e+03 
       3.093784444288e-02       1.927664334839e+03 
       3.108344817220e-02       1.920309527003e+03 
       3.122944212673e-02       1.912948203576e+03 
       3.137583617426e-02       1.905578510035e+03 
       3.152264048099e-02       1.898202088879e+03 
       3.166986552269e-02       1.890819610017e+03 
       3.181752209647e-02       1.883429561285e+03 
       3.196562133296e-02       1.876036359942e+03 
       3.211417470924e-02       1.868655062276e+03 
       3.226319406223e-02       1.861251500171e+03 
       3.241269160288e-02       1.853845406587e+03 
       3.256267993096e-02       1.846435686110e+03 
       3.271317205060e-02       1.839022558221e+03 
       3.286418138664e-02       1.831606406161e+03 
       3.301572180179e-02       1.824189882781e+03 
       3.316780761466e-02       1.816769717321e+03 
       3.332045361872e-02       1.809350150401e+03 
       3.347367510229e-02       1.801928617528e+03 
       3.362748786952e-02       1.794505841451e+03 
       3.378190826252e-02       1.787084924607e+03 
       3.393695318473e-02       1.779661701115e+03 
       3.409264012545e-02       1.772240164198e+03 
       3.424898718585e-02       1.764854864718e+03 
       3.440601310629e-02       1.757436690299e+03 
       3.456373729533e-02       1.750019038032e+03 
       3.472217986026e-02       1.742602935791e+03 
       3.488136163943e-02       1.735189778263e+03 
       3.504130423651e-02       1.727777274191e+03 
       3.520203005668e-02       1.720367821232e+03 
       3.536356234504e-02       1.712961541836e+03 
       3.552592522730e-02       1.705556588279e+03 
       3.568914375300e-02       1.698156072573e+03 
       3.585324394128e-02       1.690756834943e+03 
       3.601825282966e-02       1.683361416605e+03 
       3.618419852580e-02       1.675969579982e+03 
       3.635111026258e-02       1.668581268311e+03 
       3.651901845682e-02       1.661210952054e+03 
       3.668795477174e-02       1.653828698844e+03 
       3.685795218367e-02       1.646450725863e+03 
       3.702904505322e-02       1.639074384113e+03 
       3.720126920126e-02       1.631702403541e+03 
       3.737466199025e-02       1.624333964890e+03 
       3.754926241113e-02       1.616967579275e+03 
       3.772511117654e-02       1.609605652904e+03 
       3.790225082059e-02       1.602244896143e+03 
       3.808072580605e-02       1.594888053230e+03 
       3.826058263940e-02       1.587533959149e+03 
       3.844186999453e-02       1.580180707971e+03 
       3.862463884587e-02       1.572831590138e+03 
       3.880894261183e-02       1.565482203194e+03 
       3.899483730951e-02       1.558167981998e+03 
       3.918238172164e-02       1.550822657433e+03 
       3.937163757716e-02       1.543479635026e+03 
       3.956266974656e-02       1.536136455303e+03 
       3.975554645350e-02       1.528794050144e+03 
       3.995033950446e-02       1.521450711096e+03 
       4.014712453808e-02       1.514106305506e+03 
       4.034598129647e-02       1.506762374983e+03 
       4.054699392052e-02       1.499415301414e+03 
       4.075025127215e-02       1.492067084570e+03 
       4.095584728612e-02       1.484715481612e+03 
       4.116388135491e-02       1.477360793710e+03 
       4.137445875030e-02       1.469999922633e+03 
       4.158769108600e-02       1.462649642728e+03 
       4.180369682596e-02       1.455278936784e+03 
       4.202260184406e-02       1.447900464030e+03 
       4.224454004128e-02       1.440515559363e+03 
       4.246965402751e-02       1.433120108177e+03 
       4.269809587623e-02       1.425716182578e+03 
       4.293002796143e-02       1.418299246944e+03 
       4.316562388767e-02       1.410871110508e+03 
       4.340506952558e-02       1.403428714726e+03 
       4.364856416758e-02       1.395971285818e+03 
       4.389632182039e-02       1.388495740192e+03 
       4.414857265398e-02       1.381003476018e+03 
       4.440556462979e-02       1.373516565463e+03 
       4.466756533515e-02       1.365982087716e+03 
       4.493486405505e-02       1.358422094522e+03 
       4.520777411878e-02       1.350836985961e+03 
       4.548663556488e-02       1.343221398366e+03 
       4.577181817698e-02       1.335575929836e+03 
       4.606372495230e-02       1.327894527707e+03 
       4.636279607723e-02       1.320177267181e+03 
       4.666951349921e-02       1.312419234974e+03 
       4.698440620239e-02       1.304615381480e+03 
       4.730805631720e-02       1.296764890895e+03 
       4.764110622209e-02       1.288873835604e+03 
       4.798426683044e-02       1.280912935435e+03 
       4.833832729929e-02       1.272888790639e+03 
       4.870416645149e-02       1.264795673288e+03 
       4.908276627140e-02       1.256628018509e+03 
       4.947522792180e-02       1.248377892185e+03 
       4.988279084016e-02       1.240035293356e+03 
       5.030685561284e-02       1.231593226196e+03 
       5.074901150547e-02       1.223040210267e+03 
       5.121106975579e-02       1.214390008967e+03 
       5.169510402627e-02       1.205575416497e+03 
       5.220349978266e-02       1.196607169743e+03 
       5.273901482739e-02       1.187463473210e+03 
       5.330485379004e-02       1.178122249702e+03 
       5.390476006473e-02       1.168554854394e+03 
       5.454312946966e-02       1.158739768857e+03 
       5.522515070888e-02       1.148609147380e+03 
       5.595697834200e-02       1.138122149398e+03 
       5.674594396195e-02       1.127211955799e+03 
       5.760080970150e-02       1.115793575195e+03 
       5.853206317093e-02       1.103778562374e+03 
       5.955224097415e-02       1.090973330348e+03 
