# Matter power spectrum P(k) at redshift z=0
# for k=1.04935e-05 to 1.4771 h/Mpc,
# number of wavenumbers equal to 615
#    1:k (h/Mpc)              2:P (Mpc/h)^3        
       1.049347456817e-05       4.660925849186e+01 
       2.340269748728e-05       1.012564021957e+02 
       3.635757253546e-05       1.550548993882e+02 
       4.939310960717e-05       2.085411825748e+02 
       6.254490067362e-05       2.620279997880e+02 
       7.584943853574e-05       3.157523853077e+02 
       8.934444581866e-05       3.699210778579e+02 
       1.030692186011e-04       4.247259629741e+02 
       1.170649891060e-04       4.803889056275e+02 
       1.313753119130e-04       5.370299659473e+02 
       1.460464781587e-04       5.949948888267e+02 
       1.611279621263e-04       6.542461515045e+02 
       1.766729044448e-04       7.151208324291e+02 
       1.927386357312e-04       7.778052357887e+02 
       2.093872438333e-04       8.425494966551e+02 
       2.266861867189e-04       9.095732638991e+02 
       2.447089513404e-04       9.792079734456e+02 
       2.635357562575e-04       1.051716354656e+03 
       2.832542921392e-04       1.127414582147e+03 
       3.039604891628e-04       1.206771290306e+03 
       3.257592933717e-04       1.289924787646e+03 
       3.487654248643e-04       1.377459333933e+03 
       3.731040788449e-04       1.469659982673e+03 
       3.989115158554e-04       1.567064429499e+03 
       4.263354699403e-04       1.670175476487e+03 
       4.555352836683e-04       1.779516809786e+03 
       4.866816582685e-04       1.895744336522e+03 
       5.199558883258e-04       2.019829199887e+03 
       5.555484378062e-04       2.151648125381e+03 
       5.936567137451e-04       2.292678523446e+03 
       6.344819133453e-04       2.442249227148e+03 
       6.782248675799e-04       2.602060292115e+03 
       7.250808860696e-04       2.772004862185e+03 
       7.752337253507e-04       2.952756325113e+03 
       8.288489481415e-04       3.144998518619e+03 
       8.860670954233e-04       3.348370646207e+03 
       9.469972248424e-04       3.563688050055e+03 
       1.011711440353e-03       3.790596170098e+03 
       1.080241015626e-03       4.028619514815e+03 
       1.152574581827e-03       4.277614033550e+03 
       1.228658621587e-03       4.537112701853e+03 
       1.308400227447e-03       4.806345666975e+03 
       1.391671805402e-03       5.084403261001e+03 
       1.477104874446e-03       5.366698857753e+03 
       1.478317191869e-03       5.370681997932e+03 
       1.568158544626e-03       5.664006646919e+03 
       1.661003373014e-03       5.963560729763e+03 
       1.756651169524e-03       6.268419883999e+03 
       1.854899256026e-03       6.577442800696e+03 
       1.955547623407e-03       6.889768466773e+03 
       2.058402691808e-03       7.204566193709e+03 
       2.163280032090e-03       7.520928305726e+03 
       2.270006162586e-03       7.838198238760e+03 
       2.378419572454e-03       8.155749956152e+03 
       2.488371132401e-03       8.472896816502e+03 
       2.599724044613e-03       8.788972423030e+03 
       2.712353464543e-03       9.439051536458e+03 
       2.826145903945e-03       9.318336237546e+03 
       2.940998501176e-03       1.002799153795e+04 
       3.056818223682e-03       1.041492902478e+04 
       3.173521049721e-03       1.051949705505e+04 
       3.291031161952e-03       1.086271611162e+04 
       3.409280174412e-03       1.102610068736e+04 
       3.528206405994e-03       1.146332200030e+04 
       3.647754207526e-03       1.174757031267e+04 
       3.767873345227e-03       1.196209983473e+04 
       3.888518440465e-03       1.230977809953e+04 
       4.009648463822e-03       1.258415650474e+04 
       4.131226280343e-03       1.290017612802e+04 
       4.253218242216e-03       1.312965230936e+04 
       4.375593824875e-03       1.342177475145e+04 
       4.498325302472e-03       1.368292692522e+04 
       4.621387458817e-03       1.395839030335e+04 
       4.744757330091e-03       1.419608366049e+04 
       4.868413975907e-03       1.445719746903e+04 
       4.992338275610e-03       1.470318045733e+04 
       5.116512746974e-03       1.495204867633e+04 
       5.240921384762e-03       1.518691118229e+04 
       5.365549516885e-03       1.542469034212e+04 
       5.490383676131e-03       1.565623819583e+04 
       5.615411485685e-03       1.588339755729e+04 
       5.740621556853e-03       1.610520987142e+04 
       5.866003397589e-03       1.632640719544e+04 
       5.991547330601e-03       1.653900065296e+04 
       6.117244419936e-03       1.675039477517e+04 
       6.243086405101e-03       1.695352804451e+04 
       6.369065641863e-03       1.715197297743e+04 
       6.495175048991e-03       1.735600477024e+04 
       6.621408060290e-03       1.754619580619e+04 
       6.747758581330e-03       1.773146459831e+04 
       6.874220950386e-03       1.791864853387e+04 
       7.000789903113e-03       1.809564877195e+04 
       7.127460540575e-03       1.826864445837e+04 
       7.254228300272e-03       1.844949878827e+04 
       7.381088929840e-03       1.861491993089e+04 
       7.508038463172e-03       1.877527107457e+04 
       7.635073198686e-03       1.893200588372e+04 
       7.762189679551e-03       1.909173573468e+04 
       7.889384675645e-03       1.924066689046e+04 
       8.016655167106e-03       1.938544653469e+04 
       8.143998329293e-03       1.954066858083e+04 
       8.271411519040e-03       1.967848253139e+04 
       8.398892262064e-03       1.981230300506e+04 
       8.526438241435e-03       1.994266748585e+04 
       8.654047286989e-03       2.007589144318e+04 
       8.781717365618e-03       2.019902659074e+04 
       8.909446572337e-03       2.031792082562e+04 
       9.037233122074e-03       2.043381164412e+04 
       9.165075342105e-03       2.056071395902e+04 
       9.292971665088e-03       2.067030809632e+04 
       9.420920622637e-03       2.077536009367e+04 
       9.548920839391e-03       2.087739731997e+04 
       9.676971027539e-03       2.098393820914e+04 
       9.805069981752e-03       2.107918764428e+04 
       9.933216574505e-03       2.117128413916e+04 
       1.006140975174e-02       2.126036630990e+04 
       1.018964852886e-02       2.136098903363e+04 
       1.031793198698e-02       2.144399976985e+04 
       1.044625926953e-02       2.152396815098e+04 
       1.057462957901e-02       2.160051813129e+04 
       1.070304217402e-02       2.167368960409e+04 
       1.083149636656e-02       2.175195029156e+04 
       1.095999151937e-02       2.181953382009e+04 
       1.108852704366e-02       2.188399379494e+04 
       1.121710239681e-02       2.194560101351e+04 
       1.134571708036e-02       2.200378651415e+04 
       1.147437063807e-02       2.207525604114e+04 
       1.160306265417e-02       2.212865372318e+04 
       1.173179275169e-02       2.217939739933e+04 
       1.186056059091e-02       2.222704743551e+04 
       1.198936586793e-02       2.227190160066e+04 
       1.211820831337e-02       2.231480516281e+04 
       1.224708769109e-02       2.236249030388e+04 
       1.237600379707e-02       2.239974445901e+04 
       1.250495645831e-02       2.243434603826e+04 
       1.263394553188e-02       2.246610871849e+04 
       1.276297090396e-02       2.249537861041e+04 
       1.289203248899e-02       2.253849655572e+04 
       1.302113022892e-02       2.256362490381e+04 
       1.315026409242e-02       2.258629413748e+04 
       1.327943407423e-02       2.260640077333e+04 
       1.340864019455e-02       2.262422515818e+04 
       1.353788249844e-02       2.263982922049e+04 
       1.366716105531e-02       2.266098984650e+04 
       1.379647595842e-02       2.267218018478e+04 
       1.392582732444e-02       2.268075532136e+04 
       1.405521529306e-02       2.268696836044e+04 
       1.418464002662e-02       2.269194028067e+04 
       1.431410170977e-02       2.269361280909e+04 
       1.444360054916e-02       2.269370919908e+04 
       1.457313677323e-02       2.270814136474e+04 
       1.470271063191e-02       2.270492311372e+04 
       1.477104874446e-02       2.270191228218e+04 
       1.483232239647e-02       2.269938807561e+04 
       1.496197235929e-02       2.269197848864e+04 
       1.509166083379e-02       2.268256833388e+04 
       1.522138815420e-02       2.267059910462e+04 
       1.535115467556e-02       2.266514458496e+04 
       1.548096077360e-02       2.265028081357e+04 
       1.561080684469e-02       2.263346942085e+04 
       1.574069330580e-02       2.261477575543e+04 
       1.587062059454e-02       2.259445792989e+04 
       1.600058916911e-02       2.257160979950e+04 
       1.613059950840e-02       2.254738554916e+04 
       1.626065211197e-02       2.252181865853e+04 
       1.639074750020e-02       2.251052192981e+04 
       1.652088621432e-02       2.248150569869e+04 
       1.665106881656e-02       2.245158969466e+04 
       1.678129589027e-02       2.241941555163e+04 
       1.691156804005e-02       2.238620912137e+04 
       1.704188589194e-02       2.235133694340e+04 
       1.717225009358e-02       2.231424229678e+04 
       1.730266131441e-02       2.228408415101e+04 
       1.743312024593e-02       2.224486647900e+04 
       1.756362760185e-02       2.220441401962e+04 
       1.769418411843e-02       2.216175703429e+04 
       1.782479055468e-02       2.211810862425e+04 
       1.795544769266e-02       2.207340436075e+04 
       1.808615633782e-02       2.202683348894e+04 
       1.821691731925e-02       2.197901302703e+04 
       1.834773149005e-02       2.194539952673e+04 
       1.847859972770e-02       2.189591785260e+04 
       1.860952293438e-02       2.184453072592e+04 
       1.874050203737e-02       2.179237806404e+04 
       1.887153798948e-02       2.173904681571e+04 
       1.900263176943e-02       2.168424404704e+04 
       1.913378438230e-02       2.162878796030e+04 
       1.926499685997e-02       2.157182183216e+04 
       1.939627026162e-02       2.151362828309e+04 
       1.952760567419e-02       2.146226126188e+04 
       1.965900421291e-02       2.140266300531e+04 
       1.979046702179e-02       2.134128794363e+04 
       1.992199527421e-02       2.127966362713e+04 
       2.005359017345e-02       2.121678231298e+04 
       2.018525295328e-02       2.115251258808e+04 
       2.031698487859e-02       2.108805528943e+04 
       2.044878724596e-02       2.102170839307e+04 
       2.058066138436e-02       2.095536772484e+04 
       2.071260865579e-02       2.090235089222e+04 
       2.084463045598e-02       2.083399949514e+04 
       2.097672821509e-02       2.076537994268e+04 
       2.110890339842e-02       2.069547043998e+04 
       2.124115750724e-02       2.062509943633e+04 
       2.137349207951e-02       2.055410072298e+04 
       2.150590869069e-02       2.048172734799e+04 
       2.163840895461e-02       2.040930790135e+04 
       2.177099452429e-02       2.033609451894e+04 
       2.190366709284e-02       2.026150433973e+04 
       2.203642839439e-02       2.019393610375e+04 
       2.216928020501e-02       2.011821928600e+04 
       2.230222434368e-02       2.004264897201e+04 
       2.243526267330e-02       1.996579397257e+04 
       2.256839710175e-02       1.988892797765e+04 
       2.270162958289e-02       1.981080145262e+04 
       2.283496211774e-02       1.973279905094e+04 
       2.296839675553e-02       1.965350799048e+04 
       2.310193559495e-02       1.957433019275e+04 
       2.323558078529e-02       1.949477543214e+04 
       2.336933452771e-02       1.941387844272e+04 
       2.350319907655e-02       1.934662302297e+04 
       2.363717674059e-02       1.926532942595e+04 
       2.377126988446e-02       1.918405591538e+04 
       2.390548093006e-02       1.910179914985e+04 
       2.403981235797e-02       1.901977702412e+04 
       2.417426670898e-02       1.893662133934e+04 
       2.430884658562e-02       1.885376556974e+04 
       2.444355465377e-02       1.877052231267e+04 
       2.457839364432e-02       1.868630724246e+04 
       2.471336635484e-02       1.860235080579e+04 
       2.484847565137e-02       1.851766431306e+04 
       2.498372447021e-02       1.843910762400e+04 
       2.511911581983e-02       1.835414742318e+04 
       2.525465278276e-02       1.826898989492e+04 
       2.539033851763e-02       1.818339812833e+04 
       2.552617626124e-02       1.809752174637e+04 
       2.566216933068e-02       1.801166023953e+04 
       2.579832112553e-02       1.792566774710e+04 
       2.593463513019e-02       1.783882300040e+04 
       2.607111491621e-02       1.775252935908e+04 
       2.620776414473e-02       1.766532913251e+04 
       2.634458656905e-02       1.757841590493e+04 
       2.648158603720e-02       1.749117250107e+04 
       2.661876649469e-02       1.741580621196e+04 
       2.675613198729e-02       1.732853900018e+04 
       2.689368666395e-02       1.724111640093e+04 
       2.703143477979e-02       1.715378226087e+04 
       2.716938069925e-02       1.706587219151e+04 
       2.730752889928e-02       1.697842051624e+04 
       2.744588397272e-02       1.689074348897e+04 
       2.758445063176e-02       1.680290532172e+04 
       2.772323371153e-02       1.671485944397e+04 
       2.786223817384e-02       1.662724951205e+04 
       2.800146911104e-02       1.653900341511e+04 
       2.814093175009e-02       1.645130428417e+04 
       2.828063145664e-02       1.636828505753e+04 
       2.842057373946e-02       1.628052152873e+04 
       2.856076425485e-02       1.619243085286e+04 
       2.870120881138e-02       1.610436604969e+04 
       2.884191337472e-02       1.601658760645e+04 
       2.898288407269e-02       1.592885325987e+04 
       2.912412720050e-02       1.584072164713e+04 
       2.926564922623e-02       1.575287519087e+04 
       2.940745679650e-02       1.566523243943e+04 
       2.954955674238e-02       1.557718589403e+04 
       2.969195608554e-02       1.548977344897e+04 
       2.983466204469e-02       1.540188459465e+04 
       2.997768204223e-02       1.531453726411e+04 
       3.012102371121e-02       1.523700968154e+04 
       3.026469490262e-02       1.514964456073e+04 
       3.040870369290e-02       1.506268166564e+04 
       3.055305839189e-02       1.497582246941e+04 
       3.069776755104e-02       1.488882203593e+04 
       3.084283997201e-02       1.480190842737e+04 
       3.098828471567e-02       1.471545493725e+04 
       3.113411111145e-02       1.462862285915e+04 
       3.128032876722e-02       1.454228683344e+04 
       3.142694757944e-02       1.445605068746e+04 
       3.157397774400e-02       1.436982090022e+04 
       3.172142976737e-02       1.428401571979e+04 
       3.186931447837e-02       1.419776513339e+04 
       3.201764304050e-02       1.411226438501e+04 
       3.216642696482e-02       1.403120159368e+04 
       3.231567812347e-02       1.394567597621e+04 
       3.246540876386e-02       1.386073195824e+04 
       3.261563152352e-02       1.377581138040e+04 
       3.276635944573e-02       1.369108068791e+04 
       3.291760599592e-02       1.360623720029e+04 
       3.306938507888e-02       1.352229836153e+04 
       3.322171105690e-02       1.343788706433e+04 
       3.337459876877e-02       1.335397107545e+04 
       3.352806354984e-02       1.326995038900e+04 
       3.368212125314e-02       1.318598497719e+04 
       3.383678827155e-02       1.310276302987e+04 
       3.399208156129e-02       1.301936176710e+04 
       3.414801866653e-02       1.293618025198e+04 
       3.430461774552e-02       1.286161500197e+04 
       3.446189759804e-02       1.277913055513e+04 
       3.461987769451e-02       1.269672833119e+04 
       3.477857820662e-02       1.261441905370e+04 
       3.493802003989e-02       1.253263663337e+04 
       3.509822486797e-02       1.245072835763e+04 
       3.525921516907e-02       1.236911724296e+04 
       3.542101426448e-02       1.228792634930e+04 
       3.558364635948e-02       1.220658111350e+04 
       3.574713658670e-02       1.212583820784e+04 
       3.591151105217e-02       1.204496348782e+04 
       3.607679688426e-02       1.196462947846e+04 
       3.624302228568e-02       1.188442293024e+04 
       3.641021658883e-02       1.180399434761e+04 
       3.657841031478e-02       1.172764358249e+04 
       3.674763523604e-02       1.164786703235e+04 
       3.691792444356e-02       1.156858196955e+04 
       3.708931241824e-02       1.148914052811e+04 
       3.726183510728e-02       1.141004977678e+04 
       3.743553000589e-02       1.133129799626e+04 
       3.761043624464e-02       1.125244889363e+04 
       3.778659468308e-02       1.117414192505e+04 
       3.796404801007e-02       1.109566589701e+04 
       3.814284085144e-02       1.101752803714e+04 
       3.832301988567e-02       1.093970954191e+04 
       3.850463396820e-02       1.086169528300e+04 
       3.868773426528e-02       1.078424568318e+04 
       3.887237439812e-02       1.070681744200e+04 
       3.905861059840e-02       1.063606315952e+04 
       3.924650187617e-02       1.055887248261e+04 
       3.943611020135e-02       1.048208189590e+04 
       3.962750070013e-02       1.040533994202e+04 
       3.982074186779e-02       1.032875869325e+04 
       4.001590579963e-02       1.025238493353e+04 
       4.021306844167e-02       1.017589400127e+04 
       4.041230986355e-02       1.009984441581e+04 
       4.061371455557e-02       1.002369532501e+04 
       4.081737175274e-02       9.947662366501e+03 
       4.102337578878e-02       9.871873053247e+03 
       4.123182648322e-02       9.796139286615e+03 
       4.144282956563e-02       9.720305990772e+03 
       4.165649714102e-02       9.647519918009e+03 
       4.187294820140e-02       9.572062186606e+03 
       4.209230918898e-02       9.496444592671e+03 
       4.231471461729e-02       9.421187636458e+03 
       4.254030775750e-02       9.345638654137e+03 
       4.276924139805e-02       9.270406605991e+03 
       4.300167868721e-02       9.194902819069e+03 
       4.323779406948e-02       9.119564398100e+03 
       4.347777432832e-02       9.044233603769e+03 
       4.372181974995e-02       8.968864318333e+03 
       4.397014542516e-02       8.893175050263e+03 
       4.422298270881e-02       8.817744270646e+03 
       4.448058086016e-02       8.746772447556e+03 
       4.474320889104e-02       8.671125994360e+03 
       4.501115765362e-02       8.595160681987e+03 
       4.528474220536e-02       8.519230064649e+03 
       4.556430449521e-02       8.442866909141e+03 
       4.585021642413e-02       8.366542305308e+03 
       4.614288334223e-02       8.289724690435e+03 
       4.644274805807e-02       8.212852551408e+03 
       4.675029544982e-02       8.135648214660e+03 
       4.706605778745e-02       8.057801362026e+03 
       4.739062089714e-02       7.980027089804e+03 
       4.772463132828e-02       7.903504586136e+03 
       4.806880471808e-02       7.824680424110e+03 
       4.842393559355e-02       7.745238841784e+03 
       4.879090890564e-02       7.665207737570e+03 
       4.917071366042e-02       7.584620875635e+03 
       4.956445910049e-02       7.503352061360e+03 
       4.997339400182e-02       7.421072978071e+03 
       5.039892979393e-02       7.338070042171e+03 
       5.084266839287e-02       7.254142037950e+03 
       5.130643586830e-02       7.172575524451e+03 
       5.179232336053e-02       7.086300058965e+03 
       5.230273703726e-02       6.998826548483e+03 
       5.284045934860e-02       6.909740075779e+03 
       5.340872441848e-02       6.819032813798e+03 
       5.401131110539e-02       6.726431522739e+03 
       5.465265805495e-02       6.633199599428e+03 
       5.533800587026e-02       6.536012048578e+03 
       5.607357213396e-02       6.435984752067e+03 
       5.686676495885e-02       6.332723288001e+03 
       5.772643904256e-02       6.225801998865e+03 
       5.866319292559e-02       6.116969212571e+03 
       5.968969369096e-02       6.000396598955e+03 
