# Matter power spectrum P(k) at redshift z=3
# for k=1.05068e-05 to 1.4771 h/Mpc,
# number of wavenumbers equal to 615
#    1:k (h/Mpc)              2:P (Mpc/h)^3        
       1.050675395616e-05       4.754001458917e+00 
       2.342754347873e-05       1.032585113934e+01 
       3.639411819594e-05       1.581132580847e+01 
       4.944158262023e-05       2.126518484956e+01 
       6.260562604347e-05       2.671933381997e+01 
       7.592284273228e-05       3.219813184689e+01 
       8.943106243017e-05       3.772270305499e+01 
       1.031696955870e-04       4.331271429472e+01 
       1.171800977701e-04       4.898729549914e+01 
       1.315059577442e-04       5.476723285062e+01 
       1.461937137149e-04       6.066903742892e+01 
       1.612930021620e-04       6.671449249137e+01 
       1.768571435066e-04       7.292494834601e+01 
       1.929436684641e-04       7.932302943486e+01 
       2.096148882505e-04       8.593288156317e+01 
       2.269385106855e-04       9.278041837725e+01 
       2.449883024962e-04       9.989357052788e+01 
       2.638447955529e-04       1.073025381480e+02 
       2.835960310634e-04       1.150400448969e+02 
       3.043383305850e-04       1.231415887334e+02 
       3.261770756909e-04       1.316459076831e+02 
       3.492274688202e-04       1.405943058536e+02 
       3.736152358840e-04       1.500698063985e+02 
       3.994772163277e-04       1.600482449912e+02 
       4.269617686167e-04       1.706171369538e+02 
       4.562288991120e-04       1.818321258359e+02 
       4.874500015054e-04       1.937519856040e+02 
       5.208070751173e-04       2.064381582865e+02 
       5.564912777998e-04       2.199539076914e+02 
       5.947006691109e-04       2.343631963030e+02 
       6.356370195419e-04       2.497293221278e+02 
       6.795016100330e-04       2.661124343892e+02 
       7.264900291600e-04       2.835693466922e+02 
       7.767860944082e-04       3.021482025832e+02 
       8.305551709787e-04       3.218824222544e+02 
       8.879373166787e-04       3.427996230079e+02 
       9.490408128385e-04       3.650602373182e+02 
       1.013936710751e-03       3.885186814926e+02 
       1.082654997354e-03       4.130960209139e+02 
       1.155182847692e-03       4.387817785901e+02 
       1.231465198761e-03       4.655747021784e+02 
       1.311407593098e-03       4.934276403376e+02 
       1.394880962159e-03       5.220965056243e+02 
       1.477104874446e-03       5.501355573481e+02 
       1.481727808964e-03       5.517048248484e+02 
       1.571769144958e-03       5.820191392846e+02 
       1.664811544682e-03       6.130368426630e+02 
       1.760653782091e-03       6.445623792819e+02 
       1.859092665759e-03       6.765546337664e+02 
       1.959927856725e-03       7.089031430908e+02 
       2.062965601016e-03       7.415201693702e+02 
       2.168021421518e-03       7.743351975680e+02 
       2.274921886201e-03       8.072475586048e+02 
       2.383505605807e-03       8.402128046267e+02 
       2.493623622697e-03       8.731715398370e+02 
       2.605139342927e-03       9.060661660195e+02 
       2.717928144001e-03       9.388261741404e+02 
       2.831876767249e-03       9.713981073361e+02 
       2.946882580334e-03       1.003789334850e+03 
       3.062852774258e-03       1.035917452172e+03 
       3.179703541406e-03       1.067804855850e+03 
       3.297359266857e-03       1.099369811962e+03 
       3.415751754104e-03       1.130628219829e+03 
       3.534819498023e-03       1.161547404473e+03 
       3.654507011968e-03       1.192116314820e+03 
       3.774764211599e-03       1.222316441087e+03 
       3.895545855240e-03       1.252137910481e+03 
       4.016811038679e-03       1.281565932020e+03 
       4.138522741225e-03       1.310600676888e+03 
       4.260647419224e-03       1.339227439633e+03 
       4.383154642980e-03       1.367449813084e+03 
       4.506016773027e-03       1.395251328604e+03 
       4.629208671819e-03       1.422642729479e+03 
       4.752707447151e-03       1.449689899788e+03 
       4.876492223873e-03       1.479208214691e+03 
       5.000543940785e-03       1.476485675290e+03 
       5.124845169890e-03       1.533802342423e+03 
       5.249379955444e-03       1.501815474613e+03 
       5.374133670573e-03       1.548285161480e+03 
       5.499092889410e-03       1.560446049217e+03 
       5.624245272983e-03       1.600463680970e+03 
       5.749579467268e-03       1.635087271616e+03 
       5.875085012025e-03       1.629797081459e+03 
       6.000752259163e-03       1.661470475950e+03 
       6.126572299577e-03       1.677650722197e+03 
       6.252536897480e-03       1.706280164378e+03 
       6.378638431406e-03       1.732903617512e+03 
       6.504869841123e-03       1.739728741768e+03 
       6.631224579832e-03       1.764260765847e+03 
       6.757696571035e-03       1.788374633548e+03 
       6.884280169609e-03       1.804493809048e+03 
       7.010970126592e-03       1.826506479657e+03 
       7.137761557325e-03       1.847267669272e+03 
       7.264649912567e-03       1.859718883170e+03 
       7.391630952289e-03       1.879269055843e+03 
       7.518700721866e-03       1.898765630975e+03 
       7.645855530420e-03       1.917291669059e+03 
       7.773091931108e-03       1.932651252521e+03 
       7.900406703144e-03       1.950243210144e+03 
       8.027796835394e-03       1.967355253109e+03 
       8.155259511392e-03       1.980498614573e+03 
       8.282792095636e-03       1.996769433078e+03 
       8.410392121037e-03       2.012599642902e+03 
       8.538057277422e-03       2.027925158885e+03 
       8.665785400986e-03       2.041917682399e+03 
       8.793574464608e-03       2.056510737806e+03 
       8.921422568950e-03       2.070797574644e+03 
       9.049327934266e-03       2.084616121153e+03 
       9.177288892869e-03       2.096781929111e+03 
       9.305303882181e-03       2.109937649361e+03 
       9.433371438327e-03       2.122847833518e+03 
       9.561490190227e-03       2.135389546645e+03 
       9.689658854129e-03       2.147138265107e+03 
       9.817876228566e-03       2.159041659561e+03 
       9.946141189688e-03       2.170611016376e+03 
       1.007445268694e-02       2.181846819816e+03 
       1.020280973905e-02       2.192810886139e+03 
       1.033121143034e-02       2.202977132931e+03 
       1.045965690728e-02       2.213342320787e+03 
       1.058814537528e-02       2.223416183558e+03 
       1.071667609576e-02       2.233210978122e+03 
       1.084524838338e-02       2.242591969215e+03 
       1.097386160348e-02       2.251823558300e+03 
       1.110251516974e-02       2.260779519875e+03 
       1.123120854193e-02       2.269460642450e+03 
       1.135994122390e-02       2.277879367416e+03 
       1.148871276165e-02       2.285945426779e+03 
       1.161752274155e-02       2.293847751540e+03 
       1.174637078872e-02       2.301489717504e+03 
       1.187525656546e-02       2.308879637539e+03 
       1.200417976984e-02       2.316017912346e+03 
       1.213314013439e-02       2.322906861118e+03 
       1.226213742482e-02       2.329569564855e+03 
       1.239117143893e-02       2.335980236121e+03 
       1.252024200549e-02       2.342152466319e+03 
       1.264934898328e-02       2.348088869334e+03 
       1.277849226019e-02       2.353793761465e+03 
       1.290767175231e-02       2.359366449854e+03 
       1.303688740322e-02       2.364627438222e+03 
       1.316613918317e-02       2.369665093015e+03 
       1.329542708849e-02       2.374481244723e+03 
       1.342475114093e-02       2.379080133838e+03 
       1.355411138705e-02       2.383466631632e+03 
       1.368350789779e-02       2.387711066141e+03 
       1.381294076788e-02       2.391679354300e+03 
       1.394241011548e-02       2.395436406341e+03 
       1.407191608173e-02       2.398989105326e+03 
       1.420145883042e-02       2.402350148327e+03 
       1.433103854764e-02       2.405500621656e+03 
       1.446065544147e-02       2.408458649584e+03 
       1.459030974176e-02       2.411406252979e+03 
       1.472000169987e-02       2.413991430791e+03 
       1.477104874446e-02       2.414950599553e+03 
       1.484973158848e-02       2.416383544148e+03 
       1.497949970139e-02       2.418592113596e+03 
       1.510930635341e-02       2.420613848338e+03 
       1.523915188021e-02       2.422446359539e+03 
       1.536903663822e-02       2.424203993937e+03 
       1.549896100459e-02       2.425691687667e+03 
       1.562892537710e-02       2.427003697249e+03 
       1.575893017417e-02       2.428142379345e+03 
       1.588897583483e-02       2.429110923293e+03 
       1.601906281871e-02       2.429901152138e+03 
       1.614919160615e-02       2.430531183777e+03 
       1.627936269818e-02       2.431002779537e+03 
       1.640957661663e-02       2.431525756312e+03 
       1.653983390423e-02       2.431673156823e+03 
       1.667013512470e-02       2.431674280115e+03 
       1.680048086289e-02       2.431511216322e+03 
       1.693087172493e-02       2.431203201447e+03 
       1.706130833840e-02       2.430740006307e+03 
       1.719179135249e-02       2.430118152049e+03 
       1.732232143823e-02       2.429471718369e+03 
       1.745289928870e-02       2.428570505969e+03 
       1.758352561924e-02       2.427530582124e+03 
       1.771420116773e-02       2.426337211256e+03 
       1.784492669485e-02       2.425013418462e+03 
       1.797570298435e-02       2.423554679978e+03 
       1.810653084337e-02       2.421953796034e+03 
       1.823741110274e-02       2.420223738319e+03 
       1.836834461734e-02       2.418590681933e+03 
       1.849933226641e-02       2.416613553135e+03 
       1.863037495396e-02       2.414498926504e+03 
       1.876147360911e-02       2.412268329224e+03 
       1.889262918656e-02       2.409911978693e+03 
       1.902384266692e-02       2.407430776384e+03 
       1.915511505722e-02       2.404839905527e+03 
       1.928644739133e-02       2.402122823812e+03 
       1.941784073044e-02       2.399291245599e+03 
       1.954929616352e-02       2.396466217651e+03 
       1.968081480790e-02       2.393421079641e+03 
       1.981239780972e-02       2.390252441542e+03 
       1.994404634452e-02       2.386990101455e+03 
       2.007576161779e-02       2.383615227801e+03 
       2.020754486556e-02       2.380131327155e+03 
       2.033939735499e-02       2.376554800810e+03 
       2.047132038503e-02       2.372863036472e+03 
       2.060331528702e-02       2.369087459970e+03 
       2.073538342541e-02       2.365438918166e+03 
       2.086752619840e-02       2.361464609113e+03 
       2.099974503869e-02       2.357407476374e+03 
       2.113204141419e-02       2.353247605211e+03 
       2.126441682879e-02       2.349005531645e+03 
       2.139687282316e-02       2.344673426440e+03 
       2.152941097552e-02       2.340246180022e+03 
       2.166203290251e-02       2.335742728498e+03 
       2.179474026003e-02       2.331154904194e+03 
       2.192753474415e-02       2.326473344193e+03 
       2.206041809198e-02       2.321836038844e+03 
       2.219339208267e-02       2.316997016451e+03 
       2.232645853834e-02       2.312092571129e+03 
       2.245961932510e-02       2.307099776038e+03 
       2.259287635411e-02       2.302043538026e+03 
       2.272623158260e-02       2.296899083490e+03 
       2.285968701500e-02       2.291697083252e+03 
       2.299324470408e-02       2.286409236981e+03 
       2.312690675210e-02       2.281065657189e+03 
       2.326067531204e-02       2.275655357725e+03 
       2.339455258881e-02       2.270162502249e+03 
       2.352854084061e-02       2.264847467289e+03 
       2.366264238015e-02       2.259236468539e+03 
       2.379685957612e-02       2.253572561141e+03 
       2.393119485452e-02       2.247836231113e+03 
       2.406565070018e-02       2.242057899931e+03 
       2.420022965821e-02       2.236202455469e+03 
       2.433493433559e-02       2.230303285049e+03 
       2.446976740273e-02       2.224346352528e+03 
       2.460473159519e-02       2.218326079835e+03 
       2.473982971531e-02       2.212260390256e+03 
       2.487506463401e-02       2.206138227285e+03 
       2.501043929261e-02       2.200077268685e+03 
       2.514595670470e-02       2.193861451194e+03 
       2.528161995810e-02       2.187596903014e+03 
       2.541743221683e-02       2.181284850009e+03 
       2.555339672322e-02       2.174923660171e+03 
       2.568951680004e-02       2.168524552177e+03 
       2.582579585271e-02       2.162084296730e+03 
       2.596223737158e-02       2.155588431315e+03 
       2.609884493434e-02       2.149066503389e+03 
       2.623562220843e-02       2.142492734364e+03 
       2.637257295359e-02       2.135887375286e+03 
       2.650970102449e-02       2.129243537743e+03 
       2.664701037343e-02       2.122781936025e+03 
       2.678450505318e-02       2.116072450942e+03 
       2.692218921984e-02       2.109323640479e+03 
       2.706006713592e-02       2.102549626281e+03 
       2.719814317341e-02       2.095732701764e+03 
       2.733642181705e-02       2.088895639743e+03 
       2.747490766765e-02       2.082025359900e+03 
       2.761360544562e-02       2.075125156391e+03 
       2.775251999452e-02       2.068191798021e+03 
       2.789165628483e-02       2.061240844218e+03 
       2.803101941785e-02       2.054251959576e+03 
       2.817061462968e-02       2.047250044387e+03 
       2.831044729541e-02       2.040316039795e+03 
       2.845052293352e-02       2.033264380647e+03 
       2.859084721030e-02       2.026186911187e+03 
       2.873142594460e-02       2.019083326913e+03 
       2.887226511266e-02       2.011967059797e+03 
       2.901337085319e-02       2.004829588503e+03 
       2.915474947263e-02       1.997665620855e+03 
       2.929640745059e-02       1.990485242173e+03 
       2.943835144561e-02       1.983293098570e+03 
       2.958058830100e-02       1.976071414314e+03 
       2.972312505108e-02       1.968846949544e+03 
       2.986596892758e-02       1.961596784151e+03 
       3.000912736633e-02       1.954339491262e+03 
       3.015260801423e-02       1.947267355752e+03 
       3.029641873655e-02       1.939979214578e+03 
       3.044056762447e-02       1.932686377647e+03 
       3.058506300304e-02       1.925379662792e+03 
       3.072991343941e-02       1.918059115626e+03 
       3.087512775145e-02       1.910725482217e+03 
       3.102071501677e-02       1.903389834021e+03 
       3.116668458210e-02       1.896034421133e+03 
       3.131304607317e-02       1.888676618514e+03 
       3.145980940492e-02       1.881311965612e+03 
       3.160698479233e-02       1.873934234289e+03 
       3.175458276161e-02       1.866557213230e+03 
       3.190261416202e-02       1.859161610617e+03 
       3.205109017820e-02       1.851770186059e+03 
       3.220002234308e-02       1.844470159419e+03 
       3.234942255146e-02       1.837061945247e+03 
       3.249930307422e-02       1.829659068131e+03 
       3.264967657318e-02       1.822248275932e+03 
       3.280055611684e-02       1.814835510502e+03 
       3.295195519673e-02       1.807411029338e+03 
       3.310388774475e-02       1.799995511956e+03 
       3.325636815127e-02       1.792568913151e+03 
       3.340941128425e-02       1.785145329527e+03 
       3.356303250935e-02       1.777719503340e+03 
       3.371724771102e-02       1.770284456685e+03 
       3.387207331485e-02       1.762860257281e+03 
       3.402752631100e-02       1.755427659803e+03 
       3.418362427898e-02       1.747992386741e+03 
       3.434038541377e-02       1.740756420335e+03 
       3.449782855341e-02       1.733330981294e+03 
       3.465597320811e-02       1.725904277172e+03 
       3.481483959106e-02       1.718474865910e+03 
       3.497444865099e-02       1.711054322995e+03 
       3.513482210660e-02       1.703627193604e+03 
       3.529598248312e-02       1.696202606436e+03 
       3.545795315088e-02       1.688786063280e+03 
       3.562075836638e-02       1.681361886829e+03 
       3.578442331577e-02       1.673949001343e+03 
       3.594897416100e-02       1.666530451473e+03 
       3.611443808891e-02       1.659112470683e+03 
       3.628084336343e-02       1.651703463184e+03 
       3.644821938103e-02       1.644295634803e+03 
       3.661659672991e-02       1.636976803267e+03 
       3.678600725293e-02       1.629568939106e+03 
       3.695648411485e-02       1.622170696015e+03 
       3.712806187402e-02       1.614766369200e+03 
       3.730077655899e-02       1.607366710154e+03 
       3.747466575045e-02       1.599974047304e+03 
       3.764976866889e-02       1.592574572965e+03 
       3.782612626846e-02       1.585186097606e+03 
       3.800378133766e-02       1.577790307546e+03 
       3.818277860736e-02       1.570398015710e+03 
       3.836316486680e-02       1.563011892774e+03 
       3.854498908835e-02       1.555615707674e+03 
       3.872830256179e-02       1.548228821747e+03 
       3.891315903895e-02       1.540839747286e+03 
       3.909961488973e-02       1.533628299303e+03 
       3.928772927060e-02       1.526237978156e+03 
       3.947756430670e-02       1.518852364039e+03 
       3.966918528895e-02       1.511463495928e+03 
       3.986266088762e-02       1.504072298753e+03 
       4.005806338402e-02       1.496682128992e+03 
       4.025546892226e-02       1.489281143133e+03 
       4.045495778297e-02       1.481885823838e+03 
       4.065661468157e-02       1.474481615810e+03 
       4.086052909349e-02       1.467070876841e+03 
       4.106679560951e-02       1.459659945868e+03 
       4.127551432436e-02       1.452243234876e+03 
       4.148679126261e-02       1.444811982798e+03 
       4.170073884591e-02       1.437459288136e+03 
       4.191747640660e-02       1.430019504106e+03 
       4.213713075318e-02       1.422562094850e+03 
       4.235983679406e-02       1.415102654629e+03 
       4.258573822664e-02       1.407622680730e+03 
       4.281498830027e-02       1.400136889700e+03 
       4.304775066241e-02       1.392628602620e+03 
       4.328420029911e-02       1.385108443564e+03 
       4.352452458238e-02       1.377569854017e+03 
       4.376892443932e-02       1.370015456553e+03 
       4.401761565980e-02       1.362429461437e+03 
       4.427083036287e-02       1.354830180766e+03 
       4.452881864487e-02       1.347354019877e+03 
       4.479185043651e-02       1.339704344564e+03 
       4.506021760098e-02       1.332018447916e+03 
       4.533423631069e-02       1.324308501643e+03 
       4.561424974730e-02       1.316554312016e+03 
       4.590063117804e-02       1.308770041387e+03 
       4.619378747159e-02       1.300936678132e+03 
       4.649416312896e-02       1.293065824502e+03 
       4.680224492024e-02       1.285145712769e+03 
       4.711856723674e-02       1.277165562855e+03 
       4.744371829103e-02       1.269136777108e+03 
       4.777834732603e-02       1.261113868562e+03 
       4.812317303005e-02       1.252954212694e+03 
       4.847899339901e-02       1.244716024535e+03 
       4.884669734318e-02       1.236397356762e+03 
       4.922727840608e-02       1.227993104535e+03 
       4.962185105239e-02       1.219493190576e+03 
       5.003167009485e-02       1.210877821786e+03 
       5.045815397368e-02       1.202150129057e+03 
       5.090291278581e-02       1.193293438023e+03 
       5.136778219446e-02       1.184436861466e+03 
       5.185486464731e-02       1.175273731724e+03 
       5.236657970813e-02       1.165935619762e+03 
       5.290572577967e-02       1.156389094467e+03 
       5.347555607931e-02       1.146614816599e+03 
       5.407987242804e-02       1.136577691996e+03 
       5.472314120592e-02       1.126306988773e+03 
       5.541063662905e-02       1.115619941749e+03 
       5.614861709938e-02       1.104521525571e+03 
       5.694454028718e-02       1.092939230344e+03 
       5.780732082333e-02       1.080782816598e+03 
       5.874762903262e-02       1.068059186495e+03 
       5.977821634310e-02       1.054348458432e+03 
