# total [l(l+1)/2pi] C_l's (units: [microK]^2)
# for l=2 to 3100, i.e. number of multipoles equal to 3099
#
# -> if you don't want to see such a header, set 'headers' to 'no' in input file
# -> for CMB lensing (d), these are C_l^dd for the deflection field.
#    Remember the conversion factors:
#    C_l^dd (deflection) = l(l+1) C_l^phi-phi
#    C_l^gg (shear/convergence) = 1/4 (l(l+1))^2 C_l^phi-phi
#
# 1:l     2:TT                     3:EE                     4:BB                     5:TE                     6:dd                     7:dT                     8:dE                 
    2       1.031370998071e+03       3.303979721451e-02       0.000000000000e+00       2.691258728670e+00       4.881403279894e-08       3.031501029898e-03      -1.269960704399e-05 
    3       9.769952988300e+02       4.433828721810e-02       0.000000000000e+00       3.077522483845e+00       5.977999710951e-08       3.052175363334e-03      -1.397638950064e-05 
    4       9.254912451347e+02       4.030391368501e-02       0.000000000000e+00       2.929491143936e+00       6.924558672217e-08       2.997269018888e-03      -1.225943496903e-05 
    5       8.845909044633e+02       2.831914286872e-02       0.000000000000e+00       2.538152208198e+00       7.752312992579e-08       2.908721126096e-03      -8.852726332274e-06 
    6       8.566199941191e+02       1.651708949592e-02       0.000000000000e+00       2.072478083896e+00       8.475314295345e-08       2.805863023571e-03      -4.887553020067e-06 
    7       8.400855530998e+02       8.936850860644e-03       0.000000000000e+00       1.644429020540e+00       9.111363066099e-08       2.701615047784e-03      -1.285296721365e-06 
    8       8.265554477159e+02       5.475195419794e-03       0.000000000000e+00       1.302196603836e+00       9.672375913341e-08       2.600867895644e-03       1.354410389688e-06 
    9       8.195757532516e+02       4.258400768126e-03       0.000000000000e+00       1.058644805798e+00       1.016794691870e-07       2.508537825007e-03       2.767357596592e-06 
   10       8.213152573151e+02       3.687373273930e-03       0.000000000000e+00       9.128318524242e-01       1.060756984863e-07       2.423474759251e-03       2.981010728624e-06 
   11       8.238659667696e+02       3.141693017955e-03       0.000000000000e+00       8.499360517933e-01       1.081148057591e-07       2.342876549134e-03       2.262681132980e-06 
   12       8.250897995422e+02       2.671570582696e-03       0.000000000000e+00       8.407868370807e-01       1.115583670112e-07       2.250790999916e-03       1.049379355882e-06 
   13       8.314375537060e+02       2.453716773045e-03       0.000000000000e+00       8.680193465578e-01       1.146136832069e-07       2.168142314350e-03      -1.957470364681e-07 
   14       8.409642638956e+02       2.485629006297e-03       0.000000000000e+00       9.236914495906e-01       1.172855830495e-07       2.103299773327e-03      -1.174025314987e-06 
   15       8.480278401234e+02       2.645524847252e-03       0.000000000000e+00       9.865783661585e-01       1.198544749831e-07       2.032643584313e-03      -1.633795246071e-06 
   16       8.562835078744e+02       2.875475719840e-03       0.000000000000e+00       1.046168859527e+00       1.221422630269e-07       1.956037801129e-03      -1.693801897593e-06 
   17       8.681671375603e+02       3.201816273796e-03       0.000000000000e+00       1.107079200782e+00       1.239647879938e-07       1.879255440708e-03      -1.390346506854e-06 
   18       8.792798013532e+02       3.657972765537e-03       0.000000000000e+00       1.168700083194e+00       1.256339091880e-07       1.815185676071e-03      -9.115434665437e-07 
   19       8.897962684965e+02       4.274194745768e-03       0.000000000000e+00       1.232447993547e+00       1.273486932777e-07       1.762311225113e-03      -4.135219762929e-07 
   20       9.016742085050e+02       5.072235102924e-03       0.000000000000e+00       1.300557964272e+00       1.287755401309e-07       1.706658196116e-03      -4.988304461258e-08 
   21       9.157105951064e+02       6.031107546637e-03       0.000000000000e+00       1.370341144533e+00       1.300017579410e-07       1.649733822236e-03       8.778504446470e-08 
   22       9.315942945195e+02       7.115602870501e-03       0.000000000000e+00       1.437970360162e+00       1.311081287177e-07       1.597188277556e-03      -4.328625775952e-08 
   23       9.467561713419e+02       8.339404454663e-03       0.000000000000e+00       1.506388447570e+00       1.321415126188e-07       1.549826809130e-03      -3.695465051340e-07 
   24       9.584503981422e+02       9.727577818497e-03       0.000000000000e+00       1.579561933810e+00       1.329711465658e-07       1.505065084526e-03      -7.396553833218e-07 
   25       9.698472791072e+02       1.127140997293e-02       0.000000000000e+00       1.652481574186e+00       1.336676003783e-07       1.464249200718e-03      -1.040727850307e-06 
   26       9.852812320339e+02       1.295182138204e-02       0.000000000000e+00       1.717417155611e+00       1.342741857725e-07       1.428317695062e-03      -1.176735741054e-06 
   27       1.002826395953e+03       1.477138332399e-02       0.000000000000e+00       1.772820940100e+00       1.348092398858e-07       1.393533032020e-03      -1.165446996716e-06 
   28       1.018808720767e+03       1.674160273292e-02       0.000000000000e+00       1.819243586006e+00       1.351975793802e-07       1.354017538066e-03      -1.076336365896e-06 
   29       1.033462537419e+03       1.888186412370e-02       0.000000000000e+00       1.857286185836e+00       1.355096188368e-07       1.311469393608e-03      -9.446696183437e-07 
   30       1.048420542499e+03       2.121700061099e-02       0.000000000000e+00       1.887868103411e+00       1.357859234223e-07       1.270646009790e-03      -8.046695264715e-07 
   31       1.065162443811e+03       2.377084257527e-02       0.000000000000e+00       1.912053396804e+00       1.359738809470e-07       1.236103916042e-03      -6.972155589903e-07 
   32       1.083199765646e+03       2.654669210847e-02       0.000000000000e+00       1.930009776147e+00       1.361139842156e-07       1.207832443512e-03      -6.373277068814e-07 
   33       1.101169776515e+03       2.953924767841e-02       0.000000000000e+00       1.941672498562e+00       1.362134919433e-07       1.183012566493e-03      -6.305274530294e-07 
   34       1.117766437364e+03       3.274323568154e-02       0.000000000000e+00       1.946742753726e+00       1.362119966789e-07       1.157886698590e-03      -6.775541851498e-07 
   35       1.133472899546e+03       3.616692460695e-02       0.000000000000e+00       1.943747593188e+00       1.361411846369e-07       1.132180753386e-03      -7.650520052437e-07 
   36       1.149435894836e+03       3.982331754837e-02       0.000000000000e+00       1.930617737217e+00       1.360218773639e-07       1.106562465097e-03      -8.686633463135e-07 
   37       1.166715885470e+03       4.372511487875e-02       0.000000000000e+00       1.905439525190e+00       1.358337370958e-07       1.081544593816e-03      -9.596961145442e-07 
   38       1.185235310653e+03       4.787935137224e-02       0.000000000000e+00       1.868276203424e+00       1.356173931791e-07       1.057608125413e-03      -1.026143577390e-06 
   39       1.204475821077e+03       5.229098288311e-02       0.000000000000e+00       1.819953709602e+00       1.354047904219e-07       1.035046705044e-03      -1.060376188645e-06 
   40       1.223743010721e+03       5.696425991192e-02       0.000000000000e+00       1.761597098969e+00       1.351776790357e-07       1.013865159027e-03      -1.053859573198e-06 
   41       1.242370013510e+03       6.190263964723e-02       0.000000000000e+00       1.694205711859e+00       1.348837676135e-07       9.938436969008e-04      -1.001523195451e-06 
   42       1.260439549399e+03       6.710860524400e-02       0.000000000000e+00       1.617167517295e+00       1.345437079067e-07       9.749258866903e-04      -9.175815360260e-07 
   43       1.278274842009e+03       7.258370538101e-02       0.000000000000e+00       1.529292526822e+00       1.341828551232e-07       9.569127846284e-04      -8.272354901283e-07 
   44       1.296244931248e+03       7.832853756536e-02       0.000000000000e+00       1.429202909863e+00       1.337952432721e-07       9.393078568868e-04      -7.637794747368e-07 
   45       1.314687864306e+03       8.434362928720e-02       0.000000000000e+00       1.315667373762e+00       1.333552184521e-07       9.215167942934e-04      -7.598276389068e-07 
   46       1.333648696396e+03       9.063251692730e-02       0.000000000000e+00       1.188751334500e+00       1.328865248595e-07       9.036757632599e-04      -8.138669929203e-07 
   47       1.353066186652e+03       9.719949975634e-02       0.000000000000e+00       1.048990518285e+00       1.324164309358e-07       8.861063441583e-04      -9.105432767985e-07 
   48       1.372841908093e+03       1.040487893901e-01       0.000000000000e+00       8.970825467271e-01       1.319524056698e-07       8.690869963816e-04      -1.028490826403e-06 
   49       1.392837499521e+03       1.111845120234e-01       0.000000000000e+00       7.338950675298e-01       1.314761230682e-07       8.528409845528e-04      -1.139625870341e-06 
   50       1.412914898206e+03       1.186104000859e-01       0.000000000000e+00       5.601657934817e-01       1.309552369463e-07       8.375161298188e-04      -1.216319460803e-06 
   51       1.433076288015e+03       1.263287633574e-01       0.000000000000e+00       3.754877687027e-01       1.304033558535e-07       8.231452861347e-04      -1.258195051717e-06 
   52       1.453357388352e+03       1.343412424353e-01       0.000000000000e+00       1.790627187914e-01       1.298401969059e-07       8.096477710166e-04      -1.274821903517e-06 
   53       1.473787085226e+03       1.426490828143e-01       0.000000000000e+00      -3.002114762766e-02       1.292727430336e-07       7.968200210930e-04      -1.279039485535e-06 
   54       1.494386705771e+03       1.512531225059e-01       0.000000000000e+00      -2.527955066450e-01       1.286917424856e-07       7.843188845447e-04      -1.287302544111e-06 
   55       1.515171232348e+03       1.601537192372e-01       0.000000000000e+00      -4.901923821362e-01       1.280798072622e-07       7.717717051654e-04      -1.315693459796e-06 
   56       1.536154960060e+03       1.693505392379e-01       0.000000000000e+00      -7.423070817700e-01       1.274501215945e-07       7.591968837699e-04      -1.365341972086e-06 
   57       1.557345973955e+03       1.788426942963e-01       0.000000000000e+00      -1.008963312079e+00       1.268197046059e-07       7.467074487600e-04      -1.432267895082e-06 
   58       1.578743696814e+03       1.886287831658e-01       0.000000000000e+00      -1.289920660030e+00       1.261971207792e-07       7.343925948991e-04      -1.511147048611e-06 
   59       1.600338239242e+03       1.987068768299e-01       0.000000000000e+00      -1.584872159290e+00       1.255803154814e-07       7.223132534260e-04      -1.595179342736e-06 
   60       1.622109749756e+03       2.090745037658e-01       0.000000000000e+00      -1.893441856477e+00       1.249542530301e-07       7.104974586186e-04      -1.675952085836e-06 
   61       1.644038884896e+03       2.197284724864e-01       0.000000000000e+00      -2.215254838745e+00       1.242988499436e-07       6.989564937854e-04      -1.745277443126e-06 
   62       1.666142436083e+03       2.306643259539e-01       0.000000000000e+00      -2.550171190247e+00       1.236232942544e-07       6.877511225607e-04      -1.801767914071e-06 
   63       1.688444582708e+03       2.418767379970e-01       0.000000000000e+00      -2.898100469981e+00       1.229422773682e-07       6.769388744090e-04      -1.846208325996e-06 
   64       1.710966186574e+03       2.533596457241e-01       0.000000000000e+00      -3.258933752484e+00       1.222657059552e-07       6.665516577575e-04      -1.879802479143e-06 
   65       1.733724494812e+03       2.651062296234e-01       0.000000000000e+00      -3.632543493231e+00       1.215975161439e-07       6.565922361141e-04      -1.904213200516e-06 
   66       1.756732842809e+03       2.771088936654e-01       0.000000000000e+00      -4.018783394039e+00       1.209343880056e-07       6.470305655926e-04      -1.921603747352e-06 
   67       1.780000357118e+03       2.893592454034e-01       0.000000000000e+00      -4.417488268469e+00       1.202643571559e-07       6.377999938439e-04      -1.934680560210e-06 
   68       1.803532753516e+03       3.018488155747e-01       0.000000000000e+00      -4.828492810815e+00       1.195727964488e-07       6.288246488002e-04      -1.946097575932e-06 
   69       1.827335582990e+03       3.145714307008e-01       0.000000000000e+00      -5.251692620168e+00       1.188668106700e-07       6.201204836301e-04      -1.956354850287e-06 
   70       1.851411112808e+03       3.275212877006e-01       0.000000000000e+00      -5.686995356452e+00       1.181578708256e-07       6.117176636501e-04      -1.965344260368e-06 
   71       1.875757025330e+03       3.406922559591e-01       0.000000000000e+00      -6.134303273507e+00       1.174545573037e-07       6.036300213319e-04      -1.972932500042e-06 
   72       1.900366148941e+03       3.540778763425e-01       0.000000000000e+00      -6.593513567959e+00       1.167618941974e-07       5.958531064117e-04      -1.978958624531e-06 
   73       1.925226188976e+03       3.676713602117e-01       0.000000000000e+00      -7.064518728093e+00       1.160806328439e-07       5.883621675893e-04      -1.983231511334e-06 
   74       1.950319458649e+03       3.814655884374e-01       0.000000000000e+00      -7.547206882720e+00       1.154064831168e-07       5.811100658175e-04      -1.985527237488e-06 
   75       1.975622609980e+03       3.954531104141e-01       0.000000000000e+00      -8.041462150047e+00       1.147292910054e-07       5.740251191810e-04      -1.985586373157e-06 
   76       2.001113678430e+03       4.096257928287e-01       0.000000000000e+00      -8.547128290491e+00       1.140375024027e-07       5.670340284726e-04      -1.983206008896e-06 
   77       2.026795294671e+03       4.239736942016e-01       0.000000000000e+00      -9.063891241881e+00       1.133355316155e-07       5.601430264184e-04      -1.978551472387e-06 
   78       2.052675236408e+03       4.384859823685e-01       0.000000000000e+00      -9.591375698288e+00       1.126310359482e-07       5.533747645488e-04      -1.971924320486e-06 
   79       2.078759373011e+03       4.531512584836e-01       0.000000000000e+00      -1.012917950873e+01       1.119297515341e-07       5.467442443620e-04      -1.963677710587e-06 
   80       2.105051546417e+03       4.679575488521e-01       0.000000000000e+00      -1.067687327355e+01       1.112351079324e-07       5.402579481900e-04      -1.954219413929e-06 
   81       2.131553452028e+03       4.828922967624e-01       0.000000000000e+00      -1.123399994082e+01       1.105478165034e-07       5.339129421035e-04      -1.944014897734e-06 
   82       2.158264519617e+03       4.979423543181e-01       0.000000000000e+00      -1.180007440270e+01       1.098654318848e-07       5.276959508545e-04      -1.933590476180e-06 
   83       2.185181794228e+03       5.130939742707e-01       0.000000000000e+00      -1.237458309188e+01       1.091818858908e-07       5.215824048573e-04      -1.923536530207e-06 
   84       2.212302885116e+03       5.283333320204e-01       0.000000000000e+00      -1.295702849871e+01       1.084904167245e-07       5.155473495931e-04      -1.914415680321e-06 
   85       2.239635635173e+03       5.436482089376e-01       0.000000000000e+00      -1.354707208650e+01       1.077946361377e-07       5.096035252198e-04      -1.906453459513e-06 
   86       2.267189843580e+03       5.590265744230e-01       0.000000000000e+00      -1.414441443870e+01       1.071001744387e-07       5.037709119306e-04      -1.899777063493e-06 
   87       2.294974273752e+03       5.744560812821e-01       0.000000000000e+00      -1.474875279084e+01       1.064113483409e-07       4.980652129078e-04      -1.894502456872e-06 
   88       2.322996585802e+03       5.899240664680e-01       0.000000000000e+00      -1.535978138182e+01       1.057309254317e-07       4.924973893997e-04      -1.890732914280e-06 
   89       2.351263269006e+03       6.054175518241e-01       0.000000000000e+00      -1.597719180533e+01       1.050598741630e-07       4.870731820256e-04      -1.888557516786e-06 
   90       2.379779574272e+03       6.209232448266e-01       0.000000000000e+00      -1.660067336120e+01       1.043970990249e-07       4.817926183084e-04      -1.888049603652e-06 
   91       2.408549446598e+03       6.364275393275e-01       0.000000000000e+00      -1.722991340673e+01       1.037391605610e-07       4.766495064360e-04      -1.889265179410e-06 
   92       2.437575457543e+03       6.519165162969e-01       0.000000000000e+00      -1.786459770806e+01       1.030799798896e-07       4.716309152501e-04      -1.892241276246e-06 
   93       2.466858666158e+03       6.673761103253e-01       0.000000000000e+00      -1.850438259259e+01       1.024133352789e-07       4.667229429347e-04      -1.896970552183e-06 
   94       2.496398324528e+03       6.827926361606e-01       0.000000000000e+00      -1.914880585203e+01       1.017419348766e-07       4.619307120322e-04      -1.903322251509e-06 
   95       2.526192002876e+03       6.981523431037e-01       0.000000000000e+00      -1.979736302642e+01       1.010704642949e-07       4.572618802721e-04      -1.911100378077e-06 
   96       2.556235589548e+03       7.134412592832e-01       0.000000000000e+00      -2.044953437388e+01       1.004028917922e-07       4.527204239532e-04      -1.920063111016e-06 
   97       2.586523222495e+03       7.286451946734e-01       0.000000000000e+00      -2.110478483487e+01       9.974234165595e-08       4.483063197194e-04      -1.929919925148e-06 
   98       2.617047220761e+03       7.437497441122e-01       0.000000000000e+00      -2.176256399647e+01       9.909096039778e-08       4.440152181143e-04      -1.940328645840e-06 
   99       2.647798015965e+03       7.587402903194e-01       0.000000000000e+00      -2.242230605668e+01       9.844977560700e-08       4.398381089163e-04      -1.950892438271e-06 
  100       2.678764083782e+03       7.736020069144e-01       0.000000000000e+00      -2.308342978865e+01       9.781854730755e-08       4.357609782532e-04      -1.961156731139e-06 
  101       2.709931875427e+03       7.883198614345e-01       0.000000000000e+00      -2.374533850499e+01       9.719561166486e-08       4.317644574967e-04      -1.970606074791e-06 
  102       2.741285749142e+03       8.028786183528e-01       0.000000000000e+00      -2.440742002207e+01       9.657771688851e-08       4.278234639358e-04      -1.978660933780e-06 
  103       2.772807901675e+03       8.172628420964e-01       0.000000000000e+00      -2.506904662423e+01       9.595985117658e-08       4.239068332318e-04      -1.984674413852e-06 
  104       2.804482309174e+03       8.314573052786e-01       0.000000000000e+00      -2.572960238860e+01       9.533710363767e-08       4.199860971800e-04      -1.988078651990e-06 
  105       2.836307303746e+03       8.454482697010e-01       0.000000000000e+00      -2.638856944011e+01       9.471123319337e-08       4.160646827882e-04      -1.988865316518e-06 
  106       2.868284575978e+03       8.592223848286e-01       0.000000000000e+00      -2.704545333589e+01       9.408551979534e-08       4.121539109095e-04      -1.987195951105e-06 
  107       2.900415293083e+03       8.727663054082e-01       0.000000000000e+00      -2.769975700704e+01       9.346280952006e-08       4.082642654090e-04      -1.983262175040e-06 
