# Matter power spectrum P(k) at redshift z=3
# for k=1.04945e-05 to 1.4771 h/Mpc,
# number of wavenumbers equal to 615
#    1:k (h/Mpc)              2:P (Mpc/h)^3        
       1.049447894843e-05       4.672223500395e+00 
       2.340367804213e-05       1.014970031965e+01 
       3.635853175762e-05       1.554222162707e+01 
       4.939404981020e-05       2.090360761665e+01 
       6.254582401111e-05       2.626520495101e+01 
       7.585034701787e-05       3.165093953407e+01 
       8.934534132641e-05       3.708155533194e+01 
       1.030701028981e-04       4.257636220135e+01 
       1.170658638485e-04       4.815414029022e+01 
       1.313761786573e-04       5.383369569004e+01 
       1.460473383665e-04       5.963425181593e+01 
       1.611288171683e-04       6.557576137065e+01 
       1.766737556010e-04       7.167917579893e+01 
       1.927394841889e-04       7.796669505962e+01 
       2.093880906823e-04       8.446201097521e+01 
       2.266870329427e-04       9.119054902495e+01 
       2.447097978035e-04       9.817971260829e+01 
       2.635366036878e-04       1.054592296899e+02 
       2.832551411051e-04       1.130610213372e+02 
       3.039613400430e-04       1.210200085753e+02 
       3.257601463183e-04       1.293748434415e+02 
       3.487662797560e-04       1.381648293335e+02 
       3.731049352309e-04       1.474350909174e+02 
       3.989123728880e-04       1.572336530717e+02 
       4.263363262953e-04       1.676113707436e+02 
       4.555361374528e-04       1.786225402372e+02 
       4.866825069177e-04       1.903259803453e+02 
       5.199567284886e-04       2.027816351442e+02 
       5.555492652246e-04       2.160518093431e+02 
       5.936575231323e-04       2.301996170476e+02 
       6.344826982703e-04       2.452864504987e+02 
       6.782256203700e-04       2.614043790224e+02 
       7.250815977430e-04       2.785469416976e+02 
       7.752343855937e-04       2.967861491531e+02 
       8.288495453430e-04       3.162147277338e+02 
       8.860676167767e-04       3.367614736662e+02 
       9.469976565192e-04       3.585335508662e+02 
       1.011711767745e-03       3.814718664441e+02 
       1.080241223639e-03       4.055761654046e+02 
       1.152574655214e-03       4.307859289941e+02 
       1.228658545284e-03       4.570351607279e+02 
       1.308399986893e-03       4.843185986502e+02 
       1.391671386811e-03       5.125536886350e+02 
       1.477104874446e-03       5.412060564954e+02 
       1.478316582449e-03       5.416102069755e+02 
       1.568157732720e-03       5.714307853296e+02 
       1.661002348183e-03       6.018754385598e+02 
       1.756649922560e-03       6.328950962698e+02 
       1.854897778922e-03       6.643377236853e+02 
       1.955545909287e-03       6.961734345718e+02 
       2.058400734833e-03       7.282951789612e+02 
       2.163277827351e-03       7.606089119906e+02 
       2.270003705994e-03       7.930156302757e+02 
       2.378416860634e-03       8.255027338591e+02 
       2.488368162589e-03       8.579412740744e+02 
       2.599720814563e-03       8.903391422932e+02 
       2.712349972448e-03       9.226319235869e+02 
       2.826142148362e-03       9.547490023932e+02 
       2.940994480966e-03       9.866956481638e+02 
       3.056813937958e-03       1.018387234531e+03 
       3.173516497801e-03       1.049837346201e+03 
       3.291026343326e-03       1.080985372540e+03 
       3.409275088705e-03       1.111824220060e+03 
       3.528201052947e-03       1.142334338416e+03 
       3.647748586969e-03       1.172500023377e+03 
       3.767867457063e-03       1.202325144022e+03 
       3.888512284658e-03       1.231774850669e+03 
       4.009642040381e-03       1.260835246566e+03 
       4.131219589315e-03       1.289509455845e+03 
       4.253211283678e-03       1.317796282715e+03 
       4.375586598924e-03       1.345688724738e+03 
       4.498317809224e-03       1.373173868445e+03 
       4.621379698402e-03       1.400243901506e+03 
       4.744749302645e-03       1.426906653996e+03 
       4.868405681575e-03       1.453124032309e+03 
       4.992329714539e-03       1.478652367912e+03 
       5.116503919315e-03       1.500096339055e+03 
       5.240912290666e-03       1.536334140060e+03 
       5.365540156501e-03       1.554473052387e+03 
       5.490374049608e-03       1.583997188587e+03 
       5.615401593169e-03       1.599976890825e+03 
       5.740611398487e-03       1.616794464268e+03 
       5.865992973513e-03       1.657995979149e+03 
       5.991536640951e-03       1.673235418866e+03 
       6.117233464844e-03       1.701403872360e+03 
       6.243075184694e-03       1.715909736232e+03 
       6.369054156265e-03       1.731001772721e+03 
       6.495163298322e-03       1.770354385411e+03 
       6.621396044664e-03       1.785110264115e+03 
       6.747746300858e-03       1.798883310688e+03 
       6.874208405174e-03       1.824785859952e+03 
       7.000777093264e-03       1.839013640500e+03 
       7.127447466187e-03       1.854217080266e+03 
       7.254214961438e-03       1.886405033170e+03 
       7.381075326651e-03       1.901320584115e+03 
       7.508024595712e-03       1.914843282935e+03 
       7.635059067039e-03       1.929230249524e+03 
       7.762175283794e-03       1.950999562869e+03 
       7.889370015854e-03       1.964994761032e+03 
       8.016640243352e-03       1.978778355092e+03 
       8.143983141644e-03       2.005111931028e+03 
       8.271396067561e-03       2.018471920004e+03 
       8.398876546816e-03       2.031613330138e+03 
       8.526422262476e-03       2.045005297269e+03 
       8.654031044375e-03       2.062584195448e+03 
       8.781700859402e-03       2.075469176821e+03 
       8.909429802568e-03       2.087750928418e+03 
       9.037216088799e-03       2.100406314571e+03 
       9.165058045369e-03       2.120652939132e+03 
       9.292954104932e-03       2.132795022262e+03 
       9.420902799100e-03       2.144032229486e+03 
       9.548902752510e-03       2.155364286484e+03 
       9.676952677348e-03       2.170075625978e+03 
       9.805051368284e-03       2.180814793949e+03 
       9.933197697790e-03       2.191495818805e+03 
       1.006139061181e-02       2.202134716071e+03 
       1.018962912573e-02       2.217816538094e+03 
       1.031791232068e-02       2.227751492949e+03 
       1.044623934008e-02       2.237505422478e+03 
       1.057460938643e-02       2.246991884478e+03 
       1.070302171833e-02       2.256147952809e+03 
       1.083147564777e-02       2.267424093218e+03 
       1.095997053750e-02       2.276200915488e+03 
       1.108850579872e-02       2.284736621313e+03 
       1.121708088881e-02       2.293093754697e+03 
       1.134569530930e-02       2.301091597410e+03 
       1.147434860397e-02       2.312443060881e+03 
       1.160304035703e-02       2.320019200721e+03 
       1.173177019151e-02       2.327456731413e+03 
       1.186053776769e-02       2.334577643820e+03 
       1.198934278168e-02       2.341477885699e+03 
       1.211818496408e-02       2.348371389386e+03 
       1.224706407876e-02       2.356222152658e+03 
       1.237597992169e-02       2.362487857914e+03 
       1.250493231988e-02       2.368517775575e+03 
       1.263392113039e-02       2.374310128942e+03 
       1.276294623940e-02       2.379919557092e+03 
       1.289200756136e-02       2.387529567964e+03 
       1.302110503820e-02       2.392720128410e+03 
       1.315023863859e-02       2.397702294355e+03 
       1.327940835728e-02       2.402444886217e+03 
       1.340861421447e-02       2.407002336329e+03 
       1.353785625521e-02       2.411391481286e+03 
       1.366713454890e-02       2.416400614207e+03 
       1.379644918881e-02       2.420361645971e+03 
       1.392580029162e-02       2.424080544989e+03 
       1.405518799700e-02       2.427593906677e+03 
       1.418461246729e-02       2.431051361406e+03 
       1.431407388714e-02       2.434175554896e+03 
       1.444357246321e-02       2.437165917758e+03 
       1.457310842393e-02       2.441280874295e+03 
       1.470268201923e-02       2.443922660345e+03 
       1.477104874446e-02       2.445184016802e+03 
       1.483229352036e-02       2.446345619465e+03 
       1.496194321974e-02       2.448609415898e+03 
       1.509163143075e-02       2.450689087652e+03 
       1.522135848763e-02       2.452536292828e+03 
       1.535112474543e-02       2.454759392121e+03 
       1.548093057987e-02       2.456306442687e+03 
       1.561077638731e-02       2.457692531413e+03 
       1.574066258474e-02       2.458902556911e+03 
       1.587058960974e-02       2.459959136353e+03 
       1.600055792053e-02       2.460790561017e+03 
       1.613056799599e-02       2.461493153120e+03 
       1.626062033568e-02       2.462064310292e+03 
       1.639071545997e-02       2.463241123838e+03 
       1.652085391011e-02       2.463440815317e+03 
       1.665103624832e-02       2.463541142346e+03 
       1.678126305793e-02       2.463443287841e+03 
       1.691153494356e-02       2.463234336300e+03 
       1.704185253123e-02       2.462867412501e+03 
       1.717221646859e-02       2.462312891615e+03 
       1.730262742509e-02       2.461952558909e+03 
       1.743308609220e-02       2.461143582965e+03 
       1.756359318365e-02       2.460205756369e+03 
       1.769414943569e-02       2.459087855161e+03 
       1.782475560732e-02       2.457856220631e+03 
       1.795541248062e-02       2.456504196725e+03 
       1.808612086101e-02       2.454992822551e+03 
       1.821688157760e-02       2.453353915980e+03 
       1.834769548349e-02       2.452058308282e+03 
       1.847856345614e-02       2.450179414833e+03 
       1.860948639773e-02       2.448144730078e+03 
       1.874046523556e-02       2.446005558627e+03 
       1.887150092242e-02       2.443746175266e+03 
       1.900259443702e-02       2.441350839087e+03 
       1.913374678445e-02       2.438858108265e+03 
       1.926495899659e-02       2.436232258997e+03 
       1.939623213261e-02       2.433488580582e+03 
       1.952756727946e-02       2.430820449934e+03 
       1.965896555235e-02       2.427869873071e+03 
       1.979042809530e-02       2.424782217515e+03 
       1.992195608168e-02       2.421612763467e+03 
       2.005355071477e-02       2.418329587553e+03 
       2.018521322835e-02       2.414928084508e+03 
       2.031694488728e-02       2.411446256088e+03 
       2.044874698816e-02       2.407836254164e+03 
       2.058062085995e-02       2.404152674372e+03 
       2.071256786465e-02       2.400627860732e+03 
       2.084458939798e-02       2.396728452124e+03 
       2.097668689010e-02       2.392752488465e+03 
       2.110886180632e-02       2.388669197096e+03 
       2.124111564789e-02       2.384504031229e+03 
       2.137344995276e-02       2.380252863089e+03 
       2.150586629642e-02       2.375898707648e+03 
       2.163836629266e-02       2.371474582039e+03 
       2.177095159452e-02       2.366964064395e+03 
       2.190362389510e-02       2.362355152300e+03 
       2.203638492852e-02       2.357779654170e+03 
       2.216923647086e-02       2.353009317345e+03 
       2.230218034108e-02       2.348177991915e+03 
       2.243521840209e-02       2.343254878767e+03 
       2.256835256176e-02       2.338268842782e+03 
       2.270158477395e-02       2.333198461906e+03 
       2.283491703967e-02       2.328065742693e+03 
       2.296835140816e-02       2.322848491949e+03 
       2.310188997809e-02       2.317573218751e+03 
       2.323553489874e-02       2.312231700964e+03 
       2.336928837129e-02       2.306808624681e+03 
       2.350315265006e-02       2.301480318117e+03 
       2.363713004382e-02       2.295932094233e+03 
       2.377122291722e-02       2.290329229160e+03 
       2.390543369213e-02       2.284655669836e+03 
       2.403976484913e-02       2.278933134390e+03 
       2.417421892901e-02       2.273140389663e+03 
       2.430879853430e-02       2.267300850525e+03 
       2.444350633087e-02       2.261405077783e+03 
       2.457834504960e-02       2.255445941597e+03 
       2.471331748806e-02       2.249441613653e+03 
       2.484842651228e-02       2.243379051296e+03 
       2.498367505857e-02       2.237322274709e+03 
       2.511906613536e-02       2.231162245687e+03 
       2.525460282521e-02       2.224955084490e+03 
       2.539028828673e-02       2.218698593493e+03 
       2.552612575672e-02       2.212395481419e+03 
       2.566211855224e-02       2.206050739213e+03 
       2.579827007290e-02       2.199662966375e+03 
       2.593458380306e-02       2.193225944726e+03 
       2.607106331428e-02       2.186756283876e+03 
       2.620771226770e-02       2.180238601037e+03 
       2.634453441659e-02       2.173687387859e+03 
       2.648153360900e-02       2.167095899531e+03 
       2.661871379042e-02       2.160548854915e+03 
       2.675607900660e-02       2.153884915412e+03 
       2.689363340650e-02       2.147185594830e+03 
       2.703138124523e-02       2.140455932967e+03 
       2.716932688721e-02       2.133688036431e+03 
       2.730747480939e-02       2.126894684776e+03 
       2.744582960461e-02       2.120069015877e+03 
       2.758439598503e-02       2.113212642871e+03 
       2.772317878579e-02       2.106326944873e+03 
       2.786218296868e-02       2.099417292040e+03 
       2.800141362605e-02       2.092476790365e+03 
       2.814087598484e-02       2.085514876377e+03 
       2.828057541070e-02       2.078552872783e+03 
       2.842051741237e-02       2.071541367384e+03 
       2.856070764616e-02       2.064505129538e+03 
       2.870115192063e-02       2.057446248363e+03 
       2.884185620143e-02       2.050368449593e+03 
       2.898282661637e-02       2.043270523617e+03 
       2.912406946065e-02       2.036149890094e+03 
       2.926559120233e-02       2.029012294842e+03 
       2.940739848803e-02       2.021857931397e+03 
       2.954949814880e-02       2.014683026812e+03 
       2.969189720630e-02       2.007495710163e+03 
       2.983460287922e-02       2.000289865509e+03 
       2.997762258996e-02       1.993071896240e+03 
       3.012096397155e-02       1.985881006041e+03 
       3.026463487496e-02       1.978633353467e+03 
       3.040864337662e-02       1.971375034408e+03 
       3.055299778635e-02       1.964104478624e+03 
       3.069770665559e-02       1.956821272656e+03 
       3.084277878598e-02       1.949527476679e+03 
       3.098822323838e-02       1.942225717723e+03 
       3.113404934220e-02       1.934911611784e+03 
       3.128026670528e-02       1.927590836579e+03 
       3.142688522408e-02       1.920261738207e+03 
       3.157391509446e-02       1.912924241102e+03 
       3.172136682287e-02       1.905581202018e+03 
       3.186925123812e-02       1.898229418877e+03 
       3.201757950369e-02       1.890874170424e+03 
       3.216636313061e-02       1.883528203527e+03 
       3.231561399100e-02       1.876160902737e+03 
       3.246534433225e-02       1.868791334054e+03 
       3.261556679187e-02       1.861417525629e+03 
       3.276629441311e-02       1.854039944411e+03 
       3.291754066138e-02       1.846658307511e+03 
       3.306931944145e-02       1.839276134948e+03 
       3.322164511557e-02       1.831890086732e+03 
       3.337453252250e-02       1.824503792515e+03 
       3.352799699759e-02       1.817115615333e+03 
       3.368205439382e-02       1.809725574116e+03 
       3.383672110406e-02       1.802336994255e+03 
       3.399201408446e-02       1.794947120579e+03 
       3.414795087920e-02       1.787556509844e+03 
       3.430454964648e-02       1.780191731128e+03 
       3.446182918604e-02       1.772803866494e+03 
       3.461980896827e-02       1.765416555686e+03 
       3.477850916483e-02       1.758029969282e+03 
       3.493795068120e-02       1.750645500389e+03 
       3.509815519100e-02       1.743262122986e+03 
       3.525914517238e-02       1.735881045958e+03 
       3.542094394660e-02       1.728503045307e+03 
       3.558357571890e-02       1.721126051386e+03 
       3.574706562186e-02       1.713752889481e+03 
       3.591143976147e-02       1.706381593000e+03 
       3.607672526605e-02       1.699012617063e+03 
       3.624295033824e-02       1.691647097940e+03 
       3.641014431043e-02       1.684284261502e+03 
       3.657833770360e-02       1.676932942689e+03 
       3.674756229022e-02       1.669575833217e+03 
       3.691785116118e-02       1.662222510550e+03 
       3.708923879732e-02       1.654870924203e+03 
       3.726176114578e-02       1.647522836225e+03 
       3.743545570170e-02       1.640178529518e+03 
       3.761036159558e-02       1.632836094677e+03 
       3.778651968691e-02       1.625497073998e+03 
       3.796397266446e-02       1.618159996970e+03 
       3.814276515400e-02       1.610825717959e+03 
       3.832294383392e-02       1.603494278610e+03 
       3.850455755958e-02       1.596164049660e+03 
       3.868765749714e-02       1.588836600188e+03 
       3.887229726772e-02       1.581510662470e+03 
       3.905853310290e-02       1.574200070523e+03 
       3.924642401263e-02       1.566876498336e+03 
       3.943603196674e-02       1.559554127183e+03 
       3.962742209129e-02       1.552232088237e+03 
       3.982066288146e-02       1.544910115962e+03 
       4.001582643241e-02       1.537588083171e+03 
       4.021298869007e-02       1.530264684178e+03 
       4.041222972391e-02       1.522940674163e+03 
       4.061363402409e-02       1.515614117723e+03 
       4.081729082550e-02       1.508285125999e+03 
       4.102329446167e-02       1.500953238557e+03 
       4.123174475200e-02       1.493617804657e+03 
       4.144274742588e-02       1.486277295538e+03 
       4.165641458812e-02       1.478937097334e+03 
       4.187286523054e-02       1.471585697338e+03 
       4.209222579515e-02       1.464226772075e+03 
       4.231463079528e-02       1.456860496786e+03 
       4.254022350185e-02       1.449484758574e+03 
       4.276915670306e-02       1.442099604864e+03 
       4.300159354694e-02       1.434702585768e+03 
       4.323770847770e-02       1.427293399244e+03 
       4.347768827850e-02       1.419870461460e+03 
       4.372173323527e-02       1.412432476289e+03 
       4.397005843846e-02       1.404977189283e+03 
       4.422289524257e-02       1.397504243663e+03 
       4.448049290648e-02       1.390018943329e+03 
       4.474312044161e-02       1.382503741803e+03 
       4.501106869972e-02       1.374964028415e+03 
       4.528465273778e-02       1.367398722998e+03 
       4.556421450424e-02       1.359804117200e+03 
       4.585012589952e-02       1.352178699548e+03 
       4.614279227315e-02       1.344518940187e+03 
       4.644265643304e-02       1.336822495462e+03 
       4.675020325671e-02       1.329085963070e+03 
       4.706596501334e-02       1.321305103117e+03 
       4.739052752835e-02       1.313476835823e+03 
       4.772453735021e-02       1.305599839192e+03 
       4.806871011521e-02       1.297662705106e+03 
       4.842384034929e-02       1.289663356579e+03 
       4.879081300225e-02       1.281595987379e+03 
       4.917061707891e-02       1.273454416888e+03 
       4.956436182048e-02       1.265231198680e+03 
       4.997329600140e-02       1.256917674285e+03 
       5.039883104949e-02       1.248504806945e+03 
       5.084256887894e-02       1.239982093443e+03 
       5.130633555731e-02       1.231343478953e+03 
       5.179222222260e-02       1.222562234393e+03 
       5.230263503992e-02       1.213627925634e+03 
       5.284035645646e-02       1.204520659799e+03 
       5.340862059289e-02       1.195217354731e+03 
       5.401120630400e-02       1.185689648963e+03 
       5.465255223124e-02       1.175906061995e+03 
       5.533789897293e-02       1.165818433249e+03 
       5.607346410627e-02       1.155376452523e+03 
       5.686665573772e-02       1.144512799493e+03 
       5.772632855749e-02       1.133140717713e+03 
       5.866308109722e-02       1.121153166321e+03 
       5.968958042904e-02       1.108390845248e+03 
