# Matter power spectrum P(k) at redshift z=0
# for k=1.08068e-05 to 1.4771 h/Mpc,
# number of wavenumbers equal to 615
#    1:k (h/Mpc)              2:P (Mpc/h)^3        
       1.080680161768e-05       4.519334476513e+01 
       2.400361380888e-05       9.779373509746e+01 
       3.724941601919e-05       1.495877699891e+02 
       5.058162167142e-05       2.010942103153e+02 
       6.403829605565e-05       2.526178877729e+02 
       7.765851252884e-05       3.043924736505e+02 
       9.148272067949e-05       3.566217453971e+02 
       1.055531315754e-04       4.094958916395e+02 
       1.199141252500e-04       4.632003369442e+02 
       1.346126856175e-04       5.179211168693e+02 
       1.496988680010e-04       5.738486885519e+02 
       1.652263043602e-04       6.311809572897e+02 
       1.812527510442e-04       6.901259008549e+02 
       1.978406833748e-04       7.509039904746e+02 
       2.150579404480e-04       8.137505188180e+02 
       2.329784220590e-04       8.789178891277e+02 
       2.516828373669e-04       9.466730097387e+02 
       2.712595015342e-04       1.017317391357e+03 
       2.918051717201e-04       1.091138859824e+03 
       3.134259070552e-04       1.168590571351e+03 
       3.362379280625e-04       1.249903904333e+03 
       3.603684389293e-04       1.335518690834e+03 
       3.859563606407e-04       1.425889327713e+03 
       4.131529040700e-04       1.521518158053e+03 
       4.421218899922e-04       1.622899947901e+03 
       4.730396987710e-04       1.730400586227e+03 
       5.060947086276e-04       1.844574846388e+03 
       5.414860621754e-04       1.965865431214e+03 
       5.794215927398e-04       2.095215578499e+03 
       6.201147534930e-04       2.232923252303e+03 
       6.637804335559e-04       2.379359535132e+03 
       7.106296250932e-04       2.534996571309e+03 
       7.608630287066e-04       2.700164276384e+03 
       8.146638464724e-04       2.875485869953e+03 
       8.721901942578e-04       3.060708848725e+03 
       9.335677335615e-04       3.256127208537e+03 
       9.988832329738e-04       3.460998204921e+03 
       1.068179776037e-03       3.675857662629e+03 
       1.141454208954e-03       3.899734066886e+03 
       1.218657174351e-03       4.132031464004e+03 
       1.299695750206e-03       4.371849194371e+03 
       1.384438377667e-03       4.618765752009e+03 
       1.472721493260e-03       4.871488585992e+03 
       1.477104874446e-03       4.883909052595e+03 
       1.564357133523e-03       5.129035236659e+03 
       1.659140769538e-03       5.390946726545e+03 
       1.756858733510e-03       5.656004831238e+03 
       1.857294774853e-03       5.923199101496e+03 
       1.960235479265e-03       6.191878890358e+03 
       2.065474461423e-03       6.461374851096e+03 
       2.172815377340e-03       6.730955568399e+03 
       2.282073889453e-03       7.000044929180e+03 
       2.393078760829e-03       7.268069919252e+03 
       2.505672265043e-03       7.534724398829e+03 
       2.619710086578e-03       7.799851344041e+03 
       2.735060863268e-03       8.061863399024e+03 
       2.851605494474e-03       8.316309436727e+03 
       2.969236311235e-03       8.588609295503e+03 
       3.087856180137e-03       8.832733622535e+03 
       3.207377592123e-03       9.125791260756e+03 
       3.327721771215e-03       9.315353265344e+03 
       3.448817825592e-03       9.560548715946e+03 
       3.570601954334e-03       9.869397832969e+03 
       3.693016716473e-03       1.011789478493e+04 
       3.816010364477e-03       1.028986574775e+04 
       3.939536241249e-03       1.061480071569e+04 
       4.063552237794e-03       1.078627888282e+04 
       4.188020307598e-03       1.103124987854e+04 
       4.312906033207e-03       1.119696430967e+04 
       4.438178240281e-03       1.152107337525e+04 
       4.563808654488e-03       1.176153133357e+04 
       4.689771596774e-03       1.192009542502e+04 
       4.816043712886e-03       1.207913612827e+04 
       4.942603733312e-03       1.239573437598e+04 
       5.069432260215e-03       1.254724444063e+04 
       5.196511578218e-03       1.277748226079e+04 
       5.323825486303e-03       1.292854915378e+04 
       5.451359148326e-03       1.322777698807e+04 
       5.579098959987e-03       1.337686559259e+04 
       5.707032430316e-03       1.359448384339e+04 
       5.835148075976e-03       1.373917674133e+04 
       5.963435326895e-03       1.388268783947e+04 
       6.091884441907e-03       1.416155319902e+04 
       6.220486433246e-03       1.430445165611e+04 
       6.349232998885e-03       1.444416994036e+04 
       6.478116461818e-03       1.464366199114e+04 
       6.607129715507e-03       1.477904971940e+04 
       6.736266174813e-03       1.503103936292e+04 
       6.865519731780e-03       1.516735401081e+04 
       6.994884715768e-03       1.529939337656e+04 
       7.124355857437e-03       1.548286365685e+04 
       7.253928256185e-03       1.561071629096e+04 
       7.383597350667e-03       1.573543064373e+04 
       7.513358892065e-03       1.585986025390e+04 
       7.643208919830e-03       1.608576813460e+04 
       7.773143739638e-03       1.620696037412e+04 
       7.903159903334e-03       1.632513565189e+04 
       8.033254190665e-03       1.648840001311e+04 
       8.163423592621e-03       1.660203014566e+04 
       8.293665296228e-03       1.671358564768e+04 
       8.423976670652e-03       1.682390681712e+04 
       8.554355254485e-03       1.702317915068e+04 
       8.684798744102e-03       1.713072138338e+04 
       8.815304982985e-03       1.723527217436e+04 
       8.945871951935e-03       1.737832460992e+04 
       9.076497760072e-03       1.747914912470e+04 
       9.207180636564e-03       1.757702698029e+04 
       9.337918923026e-03       1.767290761837e+04 
       9.468711066501e-03       1.784428359487e+04 
       9.599555613013e-03       1.793918207313e+04 
       9.730451201598e-03       1.803118805988e+04 
       9.861396558813e-03       1.811992177762e+04 
       9.992390493649e-03       1.820682489331e+04 
       1.012343189284e-02       1.832669098090e+04 
       1.025451971650e-02       1.840941680318e+04 
       1.038565299414e-02       1.849014154906e+04 
       1.051683082088e-02       1.856912509731e+04 
       1.064805235406e-02       1.871309124436e+04 
       1.077931680999e-02       1.878986298636e+04 
       1.091062346102e-02       1.886485096630e+04 
       1.104197163274e-02       1.893696989614e+04 
       1.117336070145e-02       1.900684486913e+04 
       1.130479009177e-02       1.910442894063e+04 
       1.143625927444e-02       1.917078966723e+04 
       1.156776776426e-02       1.923519865390e+04 
       1.169931511818e-02       1.929759648748e+04 
       1.183090093352e-02       1.935891216486e+04 
       1.196252484635e-02       1.947410721156e+04 
       1.209418652992e-02       1.953317855377e+04 
       1.222588569324e-02       1.958969619625e+04 
       1.235762207980e-02       1.964411979858e+04 
       1.248939546628e-02       1.969654655645e+04 
       1.262120566141e-02       1.977229434985e+04 
       1.275305250497e-02       1.982204318702e+04 
       1.288493586673e-02       1.986889599290e+04 
       1.301685564558e-02       1.991457840751e+04 
       1.314881176866e-02       1.995851420651e+04 
       1.328080419061e-02       2.000118933238e+04 
       1.341283289279e-02       2.008897368824e+04 
       1.354489788266e-02       2.012916653718e+04 
       1.367699919313e-02       2.016789492295e+04 
       1.380913688204e-02       2.020478843897e+04 
       1.394131103156e-02       2.024011731807e+04 
       1.407352174779e-02       2.027309790550e+04 
       1.420576916029e-02       2.032565468787e+04 
       1.433805342168e-02       2.035566133884e+04 
       1.447037470728e-02       2.038478154766e+04 
       1.460273321481e-02       2.041186280892e+04 
       1.473512916408e-02       2.043735979001e+04 
       1.477104874446e-02       2.044426164087e+04 
       1.486756279675e-02       2.046195813313e+04 
       1.500003437608e-02       2.048508812426e+04 
       1.513254418675e-02       2.054601774806e+04 
       1.526509253469e-02       2.056705241367e+04 
       1.539767974693e-02       2.058647699495e+04 
       1.553030617151e-02       2.060407370100e+04 
       1.566297217733e-02       2.062033903002e+04 
       1.579567815416e-02       2.063551827962e+04 
       1.592842451255e-02       2.064911849450e+04 
       1.606121168380e-02       2.067872869514e+04 
       1.619404012000e-02       2.068924658727e+04 
       1.632691029401e-02       2.069909975172e+04 
       1.645982269953e-02       2.070713858459e+04 
       1.659277785115e-02       2.071441401171e+04 
       1.672577628442e-02       2.072034619525e+04 
       1.685881855599e-02       2.072522234518e+04 
       1.699190524368e-02       2.076060834833e+04 
       1.712503694665e-02       2.076403725968e+04 
       1.725821428553e-02       2.076572879964e+04 
       1.739143790262e-02       2.076609076686e+04 
       1.752470846206e-02       2.076504067793e+04 
       1.765802665004e-02       2.076292587290e+04 
       1.779139317503e-02       2.075957635561e+04 
       1.792480876803e-02       2.075487558071e+04 
       1.805827418279e-02       2.076355338073e+04 
       1.819179019615e-02       2.075667417727e+04 
       1.832535760825e-02       2.074920893152e+04 
       1.845897724293e-02       2.074021826136e+04 
       1.859264994797e-02       2.073064356158e+04 
       1.872637659549e-02       2.071986863004e+04 
       1.886015808228e-02       2.070805548912e+04 
       1.899399533019e-02       2.069564249814e+04 
       1.912788928651e-02       2.070791593711e+04 
       1.926184092440e-02       2.069402080879e+04 
       1.939585124330e-02       2.067841472465e+04 
       1.952992126938e-02       2.066204695953e+04 
       1.966405205599e-02       2.064510524503e+04 
       1.979824468418e-02       2.062653446389e+04 
       1.993250026316e-02       2.060756490898e+04 
       2.006681993084e-02       2.058708070484e+04 
       2.020120485433e-02       2.056623690813e+04 
       2.033565623056e-02       2.055493824585e+04 
       2.047017528680e-02       2.053265159374e+04 
       2.060476328129e-02       2.050887536484e+04 
       2.073942150380e-02       2.048443872941e+04 
       2.087415127637e-02       2.045836353440e+04 
       2.100895395384e-02       2.043239902818e+04 
       2.114383092464e-02       2.040542911094e+04 
       2.127878361142e-02       2.037808340438e+04 
       2.141381347182e-02       2.034972101138e+04 
       2.154892199917e-02       2.034094375340e+04 
       2.168411072332e-02       2.031163840772e+04 
       2.181938121138e-02       2.028175836493e+04 
       2.195473506858e-02       2.025023093898e+04 
       2.209017393911e-02       2.021872884341e+04 
       2.222569950698e-02       2.018575578624e+04 
       2.236131349692e-02       2.015272152256e+04 
       2.249701767535e-02       2.011880080847e+04 
       2.263281385127e-02       2.008403851170e+04 
       2.276870387731e-02       2.004897366741e+04 
       2.290468965073e-02       2.002172330657e+04 
       2.304077311446e-02       1.998556544822e+04 
       2.317695625819e-02       1.994805707585e+04 
       2.331324111949e-02       1.991001963083e+04 
       2.344962978496e-02       1.987187657026e+04 
       2.358612439142e-02       1.983282396571e+04 
       2.372272712716e-02       1.979315523869e+04 
       2.385944023313e-02       1.975274736730e+04 
       2.399626600434e-02       1.971213618406e+04 
       2.413320679114e-02       1.967092100036e+04 
       2.427026500064e-02       1.962948793868e+04 
       2.440744309809e-02       1.960367484090e+04 
       2.454474360845e-02       1.956130354213e+04 
       2.468216911782e-02       1.951830654376e+04 
       2.481972227506e-02       1.947487547263e+04 
       2.495740579341e-02       1.943081617642e+04 
       2.509522245216e-02       1.938655224480e+04 
       2.523317509838e-02       1.934126345613e+04 
       2.537126664870e-02       1.929572696984e+04 
       2.550950009118e-02       1.924985924599e+04 
       2.564787848719e-02       1.920344176470e+04 
       2.578640497336e-02       1.915683154981e+04 
       2.592508276369e-02       1.911627514862e+04 
       2.606391515155e-02       1.906864778846e+04 
       2.620290551195e-02       1.902073711100e+04 
       2.634205730369e-02       1.897240584884e+04 
       2.648137407177e-02       1.892319637001e+04 
       2.662085944974e-02       1.887379028466e+04 
       2.676051716219e-02       1.882422405227e+04 
       2.690035102731e-02       1.877457438755e+04 
       2.704036495959e-02       1.872430199674e+04 
       2.718056297253e-02       1.867366429798e+04 
       2.732094918149e-02       1.862287157778e+04 
       2.746152780667e-02       1.857205480548e+04 
       2.760230317613e-02       1.853268252416e+04 
       2.774327972896e-02       1.848117003594e+04 
       2.788446201859e-02       1.842939904620e+04 
       2.802585471614e-02       1.837711302986e+04 
       2.816746261397e-02       1.832496992383e+04 
       2.830929062934e-02       1.827205174463e+04 
       2.845134380816e-02       1.821905478333e+04 
       2.859362732895e-02       1.816583574879e+04 
       2.873614650691e-02       1.811232415200e+04 
       2.887890679816e-02       1.805838135444e+04 
       2.902191380410e-02       1.800403708803e+04 
       2.916517327602e-02       1.794976767352e+04 
       2.930869111979e-02       1.790068324827e+04 
       2.945247340085e-02       1.784582744064e+04 
       2.959652634924e-02       1.779079901121e+04 
       2.974085636503e-02       1.773592014083e+04 
       2.988547002375e-02       1.768032164178e+04 
       3.003037408224e-02       1.762500038329e+04 
       3.017557548458e-02       1.756941367422e+04 
       3.032108136837e-02       1.751337962179e+04 
       3.046689907120e-02       1.745748984243e+04 
       3.061303613746e-02       1.740145585491e+04 
       3.075950032533e-02       1.734490057220e+04 
       3.090629961420e-02       1.728853631339e+04 
       3.105344221231e-02       1.723187187461e+04 
       3.120093656472e-02       1.718425279888e+04 
       3.134879136173e-02       1.712766506468e+04 
       3.149701554752e-02       1.707067778697e+04 
       3.164561832928e-02       1.701373876718e+04 
       3.179460918674e-02       1.695661134235e+04 
       3.194399788207e-02       1.689938320602e+04 
       3.209379447028e-02       1.684182579176e+04 
       3.224400931009e-02       1.678425638708e+04 
       3.239465307528e-02       1.672654007832e+04 
       3.254573676663e-02       1.666878324852e+04 
       3.269727172433e-02       1.661095619675e+04 
       3.284926964109e-02       1.655295659003e+04 
       3.300174257578e-02       1.649511785301e+04 
       3.315470296780e-02       1.643699311823e+04 
       3.330816365213e-02       1.638271077935e+04 
       3.346213787516e-02       1.632462637505e+04 
       3.361663931121e-02       1.626621363947e+04 
       3.377168208002e-02       1.620772772927e+04 
       3.392728076508e-02       1.614937930550e+04 
       3.408345043282e-02       1.609092597872e+04 
       3.424020665295e-02       1.603226850656e+04 
       3.439756551978e-02       1.597380617335e+04 
       3.455554367467e-02       1.591510114340e+04 
       3.471415832972e-02       1.585638688720e+04 
       3.487342729275e-02       1.579777002280e+04 
       3.503336899361e-02       1.573877861892e+04 
       3.519400251202e-02       1.567992009701e+04 
       3.535534760689e-02       1.562129379967e+04 
       3.551742474738e-02       1.556931424353e+04 
       3.568025514573e-02       1.551042183514e+04 
       3.584386079189e-02       1.545162801913e+04 
       3.600826449041e-02       1.539279830394e+04 
       3.617348989924e-02       1.533374750351e+04 
       3.633956157113e-02       1.527476795198e+04 
       3.650650499735e-02       1.521568880781e+04 
       3.667434665421e-02       1.515654087678e+04 
       3.684311405245e-02       1.509777123543e+04 
       3.701283578972e-02       1.503855966459e+04 
       3.718354160647e-02       1.497952130961e+04 
       3.735526244537e-02       1.492033420286e+04 
       3.752803051472e-02       1.486113332946e+04 
       3.770187935598e-02       1.480187000955e+04 
       3.787684391591e-02       1.474542826581e+04 
       3.805296062352e-02       1.468618262666e+04 
       3.823026747245e-02       1.462681025587e+04 
       3.840880410904e-02       1.456760187364e+04 
       3.858861192662e-02       1.450817944806e+04 
       3.876973416662e-02       1.444878872308e+04 
       3.895221602703e-02       1.438936534362e+04 
       3.913610477890e-02       1.432985754973e+04 
       3.932144989146e-02       1.427045437785e+04 
       3.950830316693e-02       1.421087956729e+04 
       3.969671888555e-02       1.415134592189e+04 
       3.988675396211e-02       1.409182544099e+04 
       4.007846811480e-02       1.403219221746e+04 
       4.027192404781e-02       1.397712888037e+04 
       4.046718764878e-02       1.391753496286e+04 
       4.066432820276e-02       1.385792486095e+04 
       4.086341862423e-02       1.379804899516e+04 
       4.106453570913e-02       1.373841588384e+04 
       4.126776040882e-02       1.367850421738e+04 
       4.147317812843e-02       1.361856677794e+04 
       4.168087905221e-02       1.355845676408e+04 
       4.189095849868e-02       1.349819080635e+04 
       4.210351730911e-02       1.343797366723e+04 
       4.231866227292e-02       1.337744910760e+04 
       4.253650659431e-02       1.331683226644e+04 
       4.275717040500e-02       1.325621598426e+04 
       4.298078132847e-02       1.319557063377e+04 
       4.320747510206e-02       1.313653372211e+04 
       4.343739626404e-02       1.307563915502e+04 
       4.367069891387e-02       1.301433893712e+04 
       4.390754755502e-02       1.295297635201e+04 
       4.414811803130e-02       1.289144117101e+04 
       4.439259856909e-02       1.282972574183e+04 
       4.464119093999e-02       1.276781402483e+04 
       4.489411176078e-02       1.270565258144e+04 
       4.515159395007e-02       1.264323992524e+04 
       4.541388836472e-02       1.258069564404e+04 
       4.568126564247e-02       1.251778595061e+04 
       4.595401828245e-02       1.245803084899e+04 
       4.623246300041e-02       1.239451553874e+04 
       4.651694340252e-02       1.233082729764e+04 
       4.680783302956e-02       1.226658298920e+04 
       4.710553883355e-02       1.220212499464e+04 
       4.741050516046e-02       1.213704281965e+04 
       4.772321832799e-02       1.207167409698e+04 
       4.804421190505e-02       1.200565819498e+04 
       4.837407282239e-02       1.193911399441e+04 
       4.871344847131e-02       1.187212200769e+04 
       4.906305498190e-02       1.180443163519e+04 
       4.942368691556e-02       1.173748088091e+04 
       4.979622866045e-02       1.166850028144e+04 
       5.018166788642e-02       1.159856515930e+04 
       5.058111150242e-02       1.152788110758e+04 
       5.099580466792e-02       1.145615656143e+04 
       5.142715354887e-02       1.138348014636e+04 
       5.187675268515e-02       1.130961718869e+04 
       5.234641806178e-02       1.123459649554e+04 
       5.283822726283e-02       1.116070611972e+04 
       5.335456845069e-02       1.108279322457e+04 
       5.389820037159e-02       1.100306168060e+04 
       5.447232615571e-02       1.092139847042e+04 
       5.508068436719e-02       1.083745917500e+04 
       5.572766154996e-02       1.075098075060e+04 
       5.641843134572e-02       1.066267524170e+04 
       5.715912595126e-02       1.056990875822e+04 
       5.795704582482e-02       1.047310154199e+04 
       5.882091228167e-02       1.037154195681e+04 
       5.976116321619e-02       1.026432808684e+04 
       6.079028139335e-02       1.015209847599e+04 
       6.192312179908e-02       1.002937701424e+04 
