# Matter power spectrum P(k) at redshift z=3
# for k=1.047e-05 to 1.4771 h/Mpc,
# number of wavenumbers equal to 615
#    1:k (h/Mpc)              2:P (Mpc/h)^3        
       1.046996940314e-05       4.716693338869e+00 
       2.335843205947e-05       1.025030051973e+01 
       3.629230953490e-05       1.569797491157e+01 
       4.930644233389e-05       2.111406890303e+01 
       6.243624821964e-05       2.653021183904e+01 
       7.571803839138e-05       3.197053046013e+01 
       8.918934378724e-05       3.745593301953e+01 
       1.028892558571e-04       4.300587466945e+01 
       1.168587861832e-04       4.863927063517e+01 
       1.311412493588e-04       5.437505644773e+01 
       1.457826735441e-04       6.023258307657e+01 
       1.608322430533e-04       6.623193014152e+01 
       1.763427771509e-04       7.239417723891e+01 
       1.923712488592e-04       7.874165536833e+01 
       2.089793469153e-04       8.529819082244e+01 
       2.262340829276e-04       9.208934821397e+01 
       2.442084441040e-04       9.914267613984e+01 
       2.629820894250e-04       1.064879568487e+02 
       2.826420835540e-04       1.141574568292e+02 
       3.032836577704e-04       1.221861757238e+02 
       3.250109804041e-04       1.306120845662e+02 
       3.479379102294e-04       1.394763422595e+02 
       3.721886946754e-04       1.488234744113e+02 
       3.978985602590e-04       1.587014913632e+02 
       4.252141253867e-04       1.691490615686e+02 
       4.542935461435e-04       1.802460070012e+02 
       4.853062852640e-04       1.920383593718e+02 
       5.184323757612e-04       2.045868982673e+02 
       5.538610378313e-04       2.179543392066e+02 
       5.917885065848e-04       2.322042746799e+02 
       6.324149463405e-04       2.473997621649e+02 
       6.759403726311e-04       2.636088861115e+02 
       7.225595821326e-04       2.808740741280e+02 
       7.724562050894e-04       2.992514439366e+02 
       8.257961375288e-04       3.187765496245e+02 
       8.827207631091e-04       3.394809375071e+02 
       9.433405065688e-04       3.613887829217e+02 
       1.007729335344e-03       3.844831222695e+02 
       1.075920809441e-03       4.087417093406e+02 
       1.147906155304e-03       4.341388901593e+02 
       1.223634618034e-03       4.606239797772e+02 
       1.303016067811e-03       4.881037622338e+02 
       1.385925559982e-03       5.165575273629e+02 
       1.472209333196e-03       5.458634035060e+02 
       1.477104874446e-03       5.475213540837e+02 
       1.561691616385e-03       5.759099616188e+02 
       1.654181613276e-03       6.066312768963e+02 
       1.749480123785e-03       6.379159344211e+02 
       1.847385408599e-03       6.696554701609e+02 
       1.947698066884e-03       7.017765332354e+02 
       2.050224845606e-03       7.341792149797e+02 
       2.154781413792e-03       7.667781705884e+02 
       2.261194210465e-03       7.994960127419e+02 
       2.369301514182e-03       8.322810583556e+02 
       2.478953893259e-03       8.650538171552e+02 
       2.590014188044e-03       8.977640560373e+02 
       2.702357158186e-03       9.303616077997e+02 
       2.815868905059e-03       9.627967529168e+02 
       2.930446156300e-03       9.950458438076e+02 
       3.045995478343e-03       1.027045925146e+03 
       3.162432464896e-03       1.058790448792e+03 
       3.279680934768e-03       1.090245174514e+03 
       3.397672161195e-03       1.121384802164e+03 
       3.516344146317e-03       1.152200015376e+03 
       3.635640948281e-03       1.182662773300e+03 
       3.755512064086e-03       1.212755483941e+03 
       3.875911868285e-03       1.242477517111e+03 
       3.996799105755e-03       1.271834187407e+03 
       4.118136435508e-03       1.300779399545e+03 
       4.239890021891e-03       1.329343193078e+03 
       4.362029169211e-03       1.357480393918e+03 
       4.484525995788e-03       1.385221385627e+03 
       4.607355143537e-03       1.412537072618e+03 
       4.730493519417e-03       1.439449721947e+03 
       4.853920065319e-03       1.465927834776e+03 
       4.977615553286e-03       1.491936362943e+03 
       5.101562403225e-03       1.516763218702e+03 
       5.225744520567e-03       1.544273768182e+03 
       5.350147151612e-03       1.567786312805e+03 
       5.474756754523e-03       1.593230425640e+03 
       5.599560884180e-03       1.615670441545e+03 
       5.724548089302e-03       1.637948049194e+03 
       5.849707820438e-03       1.664640121453e+03 
       5.975030347582e-03       1.685967147165e+03 
       6.100506686322e-03       1.709485928960e+03 
       6.226128531566e-03       1.730024517476e+03 
       6.351888197989e-03       1.750357336841e+03 
       6.477778566456e-03       1.774965133772e+03 
       6.603793035762e-03       1.794617144826e+03 
       6.729925479112e-03       1.813760708666e+03 
       6.856170204817e-03       1.834870751549e+03 
       6.982521920765e-03       1.853470579199e+03 
       7.108975702255e-03       1.871947737610e+03 
       7.235526962855e-03       1.893241728304e+03 
       7.362171427943e-03       1.911063119702e+03 
       7.488905110688e-03       1.928345173313e+03 
       7.615724290195e-03       1.945461683468e+03 
       7.742625491602e-03       1.963618079456e+03 
       7.869605467949e-03       1.980096612444e+03 
       7.996661183622e-03       1.996229823163e+03 
       8.123789799228e-03       2.014332030054e+03 
       8.250988657773e-03       2.029839013080e+03 
       8.378255271998e-03       2.044994202137e+03 
       8.505587312777e-03       2.059900765697e+03 
       8.632982598479e-03       2.075314123862e+03 
       8.760439085192e-03       2.089596489791e+03 
       8.887954857750e-03       2.103500228095e+03 
       9.015528121466e-03       2.117187173824e+03 
       9.143157194537e-03       2.131992288652e+03 
       9.270840501027e-03       2.145072382838e+03 
       9.398576564412e-03       2.157728890356e+03 
       9.526364001617e-03       2.170167987640e+03 
       9.654201517503e-03       2.182929955831e+03 
       9.782087899782e-03       2.194739964578e+03 
       9.910022014303e-03       2.206293104996e+03 
       1.003800280070e-02       2.217577349407e+03 
       1.016602926835e-02       2.229529060120e+03 
       1.029410049263e-02       2.240230778942e+03 
       1.042221561146e-02       2.250642092325e+03 
       1.055037382209e-02       2.260764545357e+03 
       1.067857437808e-02       2.270603898399e+03 
       1.080681658658e-02       2.280610719212e+03 
       1.093509980570e-02       2.289928280908e+03 
       1.106342344215e-02       2.298978066164e+03 
       1.119178694902e-02       2.307767471986e+03 
       1.132018982368e-02       2.316285280587e+03 
       1.144863160590e-02       2.325183329832e+03 
       1.157711187602e-02       2.333191293341e+03 
       1.170563025329e-02       2.340967844157e+03 
       1.183418639437e-02       2.348472402384e+03 
       1.196277999181e-02       2.355730651990e+03 
       1.209141077281e-02       2.363023774217e+03 
       1.222007849787e-02       2.369800668232e+03 
       1.234878295970e-02       2.376341424777e+03 
       1.247752398213e-02       2.382645832937e+03 
       1.260630141912e-02       2.388707831074e+03 
       1.273511515380e-02       2.394544046735e+03 
       1.286396509764e-02       2.400548311137e+03 
       1.299285118965e-02       2.405937983281e+03 
       1.312177339564e-02       2.411103029797e+03 
       1.325073170751e-02       2.416044272111e+03 
       1.337972614269e-02       2.420768324987e+03 
       1.350875674349e-02       2.425283932118e+03 
       1.363782357661e-02       2.429736210548e+03 
       1.376692673263e-02       2.433826161537e+03 
       1.389606632558e-02       2.437702590107e+03 
       1.402524249252e-02       2.441370177814e+03 
       1.415445539319e-02       2.444861198253e+03 
       1.428370520965e-02       2.448127322527e+03 
       1.441299214598e-02       2.451436332684e+03 
       1.454231642807e-02       2.454312161685e+03 
       1.467167830329e-02       2.457006639633e+03 
       1.477104874446e-02       2.458944029470e+03 
       1.480107804038e-02       2.459506893938e+03 
       1.493051592919e-02       2.461820066489e+03 
       1.505999228057e-02       2.463950589882e+03 
       1.518950742625e-02       2.465885798862e+03 
       1.531906171873e-02       2.467737304780e+03 
       1.544865553118e-02       2.469319797558e+03 
       1.557828925743e-02       2.470731727345e+03 
       1.570796331189e-02       2.471966481284e+03 
       1.583767812959e-02       2.473032447352e+03 
       1.596743416616e-02       2.473919308160e+03 
       1.609723189787e-02       2.474644175820e+03 
       1.622707182169e-02       2.475344761684e+03 
       1.635695445533e-02       2.475745119771e+03 
       1.648688033738e-02       2.475978110516e+03 
       1.661685002739e-02       2.476061317017e+03 
       1.674686410598e-02       2.475979109280e+03 
       1.687692317504e-02       2.475749559643e+03 
       1.700702785782e-02       2.475368726976e+03 
       1.713717879918e-02       2.474830051214e+03 
       1.726737666573e-02       2.474199829714e+03 
       1.739762214610e-02       2.473373590950e+03 
       1.752791595111e-02       2.472404634250e+03 
       1.765825881407e-02       2.471287413933e+03 
       1.778865149101e-02       2.470031862620e+03 
       1.791909476099e-02       2.468643910426e+03 
       1.804958942636e-02       2.467114936508e+03 
       1.818013631312e-02       2.465450771916e+03 
       1.831073627122e-02       2.463739664128e+03 
       1.844139017492e-02       2.461817599391e+03 
       1.857209892313e-02       2.459763531944e+03 
       1.870286343984e-02       2.457584540873e+03 
       1.883368467447e-02       2.455284220713e+03 
       1.896456360232e-02       2.452857464061e+03 
       1.909550122498e-02       2.450312908513e+03 
       1.922649857079e-02       2.447649697002e+03 
       1.935755669532e-02       2.444866921094e+03 
       1.948867668183e-02       2.442003736231e+03 
       1.961985964180e-02       2.438996691419e+03 
       1.975110671543e-02       2.435874270844e+03 
       1.988241907221e-02       2.432645876597e+03 
       2.001379791145e-02       2.429310121125e+03 
       2.014524446290e-02       2.425864302448e+03 
       2.027675998731e-02       2.422319660205e+03 
       2.040834577708e-02       2.418667627824e+03 
       2.054000315688e-02       2.414919206803e+03 
       2.067173348436e-02       2.411117051524e+03 
       2.080353815076e-02       2.407169553546e+03 
       2.093541858170e-02       2.403128450063e+03 
       2.106737623785e-02       2.398992510455e+03 
       2.119941261572e-02       2.394765649679e+03 
       2.133152924842e-02       2.390449126412e+03 
       2.146372770648e-02       2.386040466573e+03 
       2.159600959866e-02       2.381547961901e+03 
       2.172837657282e-02       2.376969311627e+03 
       2.186083031681e-02       2.372304184459e+03 
       2.199337255935e-02       2.367576622370e+03 
       2.212600507100e-02       2.362749238953e+03 
       2.225872966512e-02       2.357844577386e+03 
       2.239154819885e-02       2.352860594995e+03 
       2.252446257417e-02       2.347802385930e+03 
       2.265747473893e-02       2.342667820748e+03 
       2.279058668798e-02       2.337461629719e+03 
       2.292380046427e-02       2.332182371998e+03 
       2.305711816002e-02       2.326834366825e+03 
       2.319054191793e-02       2.321418240275e+03 
       2.332407393244e-02       2.315932708748e+03 
       2.345771645094e-02       2.310408845610e+03 
       2.359147177517e-02       2.304793912220e+03 
       2.372534226253e-02       2.299116726807e+03 
       2.385933032748e-02       2.293376692500e+03 
       2.399343844303e-02       2.287578087301e+03 
       2.412766914220e-02       2.281719114384e+03 
       2.426202501956e-02       2.275804488235e+03 
       2.439650873284e-02       2.269833456321e+03 
       2.453112300457e-02       2.263805796582e+03 
       2.466587062377e-02       2.257726057412e+03 
       2.480075444770e-02       2.251592860385e+03 
       2.493577740369e-02       2.245419102602e+03 
       2.507094249097e-02       2.239185550708e+03 
       2.520625278265e-02       2.232904329542e+03 
       2.534171142767e-02       2.226574832953e+03 
       2.547732165290e-02       2.220199780111e+03 
       2.561308676523e-02       2.213779861599e+03 
       2.574901015382e-02       2.207316634074e+03 
       2.588509529233e-02       2.200809787744e+03 
       2.602134574133e-02       2.194263074584e+03 
       2.615776515068e-02       2.187674584233e+03 
       2.629435726209e-02       2.181048421566e+03 
       2.643112591171e-02       2.174397441573e+03 
       2.656807503286e-02       2.167696311350e+03 
       2.670520865877e-02       2.160958852468e+03 
       2.684253092553e-02       2.154187455486e+03 
       2.698004607506e-02       2.147382283733e+03 
       2.711775845821e-02       2.140543836899e+03 
       2.725567253801e-02       2.133674809159e+03 
       2.739379289297e-02       2.126775238088e+03 
       2.753212422054e-02       2.119845621883e+03 
       2.767067134073e-02       2.112887760304e+03 
       2.780943919979e-02       2.105902808197e+03 
       2.794843287410e-02       2.098890852164e+03 
       2.808765757413e-02       2.091853724344e+03 
       2.822711864864e-02       2.084796445883e+03 
       2.836682158897e-02       2.077711152937e+03 
       2.850677203354e-02       2.070602468786e+03 
       2.864697577248e-02       2.063472056692e+03 
       2.878743875248e-02       2.056320813146e+03 
       2.892816708183e-02       2.049149535207e+03 
       2.906916703564e-02       2.041958214355e+03 
       2.921044506126e-02       2.034748902356e+03 
       2.935200778398e-02       2.027521812910e+03 
       2.949386201289e-02       2.020277405749e+03 
       2.963601474700e-02       2.013017627838e+03 
       2.977847318166e-02       2.005741805139e+03 
       2.992124471520e-02       1.998452057331e+03 
       3.006433695583e-02       1.991155434522e+03 
       3.020775772892e-02       1.983838304559e+03 
       3.035151508450e-02       1.976508933732e+03 
       3.049561730512e-02       1.969167912658e+03 
       3.064007291409e-02       1.961815477432e+03 
       3.078489068401e-02       1.954452819559e+03 
       3.093007964571e-02       1.947080654398e+03 
       3.107564909765e-02       1.939698965783e+03 
       3.122160861561e-02       1.932309235253e+03 
       3.136796806299e-02       1.924911456896e+03 
       3.151473760139e-02       1.917506532879e+03 
       3.166192770190e-02       1.910094972599e+03 
       3.180954915672e-02       1.902676946886e+03 
       3.195761309144e-02       1.895253814211e+03 
       3.210613097789e-02       1.887828156612e+03 
       3.225511464760e-02       1.880395174365e+03 
       3.240457630592e-02       1.872958452836e+03 
       3.255452854678e-02       1.865518149838e+03 
       3.270498436831e-02       1.858074699473e+03 
       3.285595718911e-02       1.850628628533e+03 
       3.300746086541e-02       1.843180652047e+03 
       3.315950970911e-02       1.835730586119e+03 
       3.331211850670e-02       1.828279567286e+03 
       3.346530253927e-02       1.820827369499e+03 
       3.361907760345e-02       1.813374556860e+03 
       3.377346003356e-02       1.805921911969e+03 
       3.392846672490e-02       1.798469088018e+03 
       3.408411515835e-02       1.791016765878e+03 
       3.424042342629e-02       1.783569615461e+03 
       3.439741025996e-02       1.776119440126e+03 
       3.455509505839e-02       1.768670494247e+03 
       3.471349791896e-02       1.761223154773e+03 
       3.487263966972e-02       1.753777783706e+03 
       3.503254190355e-02       1.746334380325e+03 
       3.519322701442e-02       1.738893420204e+03 
       3.535471823571e-02       1.731455062426e+03 
       3.551703968090e-02       1.724019197610e+03 
       3.568021638673e-02       1.716586411492e+03 
       3.584427435901e-02       1.709156383750e+03 
       3.600924062128e-02       1.701729515762e+03 
       3.617514326659e-02       1.694305899170e+03 
       3.634201151251e-02       1.686885599563e+03 
       3.650987575983e-02       1.679469997131e+03 
       3.667876765498e-02       1.672056405845e+03 
       3.684872015666e-02       1.664646252133e+03 
       3.701976760699e-02       1.657239303725e+03 
       3.719194580743e-02       1.649835888041e+03 
       3.736529210001e-02       1.642435874163e+03 
       3.753984545422e-02       1.635038972598e+03 
       3.771564656010e-02       1.627645424694e+03 
       3.789273792799e-02       1.620254795258e+03 
       3.807116399559e-02       1.612867242037e+03 
       3.825097124294e-02       1.605482462803e+03 
       3.843220831601e-02       1.598100172982e+03 
       3.861492615977e-02       1.590720433208e+03 
       3.879917816145e-02       1.583342695202e+03 
       3.898502030516e-02       1.575969348550e+03 
       3.917251133871e-02       1.568595096699e+03 
       3.936171295399e-02       1.561222192722e+03 
       3.955268998218e-02       1.553850134047e+03 
       3.974551060523e-02       1.546478620050e+03 
       3.994024658521e-02       1.539107138347e+03 
       4.013697351353e-02       1.531735241292e+03 
       4.033577108197e-02       1.524362613632e+03 
       4.053672337774e-02       1.516988435635e+03 
       4.073991920541e-02       1.509612241632e+03 
       4.094545243846e-02       1.502233457118e+03 
       4.115342240374e-02       1.494851395778e+03 
       4.136393430271e-02       1.487465187191e+03 
       4.157709967358e-02       1.480075220037e+03 
       4.179303689919e-02       1.472678702852e+03 
       4.201187176611e-02       1.465275655751e+03 
       4.223373808123e-02       1.457865258806e+03 
       4.245877835285e-02       1.450446350698e+03 
       4.268714454463e-02       1.443018015177e+03 
       4.291899891166e-02       1.435578902765e+03 
       4.315451492947e-02       1.428127959814e+03 
       4.339387832852e-02       1.420663787835e+03 
       4.363728824861e-02       1.413185007702e+03 
       4.388495852999e-02       1.405690001637e+03 
       4.413711916067e-02       1.398177361130e+03 
       4.439401790286e-02       1.390646520191e+03 
       4.465592212515e-02       1.383092956381e+03 
       4.492312087198e-02       1.375515938440e+03 
       4.519592720730e-02       1.367913440536e+03 
       4.547468087644e-02       1.360282938300e+03 
       4.575975133805e-02       1.352622070308e+03 
       4.605154122822e-02       1.344927929253e+03 
       4.635049033097e-02       1.337197715942e+03 
       4.665708014400e-02       1.329428121928e+03 
       4.697183914733e-02       1.321615523382e+03 
       4.729534890440e-02       1.313756201481e+03 
       4.762825115382e-02       1.305846388638e+03 
       4.797125608439e-02       1.297880263297e+03 
       4.832515202958e-02       1.289853236036e+03 
       4.869081687249e-02       1.281759527970e+03 
       4.906923152083e-02       1.273592770434e+03 
       4.946149589864e-02       1.265345757567e+03 
       4.986884801186e-02       1.257010326473e+03 
       5.029268678493e-02       1.248577340546e+03 
       5.073459954480e-02       1.240036317176e+03 
       5.119639525657e-02       1.231376301894e+03 
       5.168014490505e-02       1.222581107687e+03 
       5.218823078483e-02       1.213635518289e+03 
       5.272340692341e-02       1.204520185514e+03 
       5.328887343374e-02       1.195212187105e+03 
       5.388836827987e-02       1.185683839752e+03 
       5.452628072327e-02       1.175901926570e+03 
       5.520779152316e-02       1.165823779387e+03 
       5.593904559172e-02       1.155397800142e+03 
       5.672736280783e-02       1.144558006593e+03 
       5.758149113150e-02       1.133219521101e+03 
       5.851190118173e-02       1.121272661748e+03 
       5.953110956211e-02       1.108569842403e+03 
