# total [l(l+1)/2pi] C_l's (units: [microK]^2)
# for l=2 to 3100, i.e. number of multipoles equal to 3099
#
# -> if you don't want to see such a header, set 'headers' to 'no' in input file
# -> for CMB lensing (d), these are C_l^dd for the deflection field.
#    Remember the conversion factors:
#    C_l^dd (deflection) = l(l+1) C_l^phi-phi
#    C_l^gg (shear/convergence) = 1/4 (l(l+1))^2 C_l^phi-phi
#
# 1:l     2:TT                     3:EE                     4:BB                     5:TE                     6:dd                     7:dT                     8:dE                 
    2       1.043609078327e+03       3.294715228750e-02       0.000000000000e+00       2.668711271983e+00       4.785849669237e-08       3.090715318308e-03      -1.267358231524e-05 
    3       9.883988206262e+02       4.428095967004e-02       0.000000000000e+00       3.062002498711e+00       5.849386029465e-08       3.117456174327e-03      -1.395279411364e-05 
    4       9.360317656810e+02       4.032050853047e-02       0.000000000000e+00       2.921226753736e+00       6.762921031758e-08       3.068409465426e-03      -1.224663208606e-05 
    5       8.941462341414e+02       2.838112282439e-02       0.000000000000e+00       2.535796294043e+00       7.555283317702e-08       2.985664377714e-03      -8.850730222730e-06 
    6       8.650468877710e+02       1.658284194051e-02       0.000000000000e+00       2.074584676879e+00       8.239830715905e-08       2.887235156842e-03      -4.891341798561e-06 
    7       8.478000659010e+02       8.981114316677e-03       0.000000000000e+00       1.649132585430e+00       8.836675378738e-08       2.785171611917e-03      -1.287430714645e-06 
    8       8.336286921540e+02       5.499021802282e-03       0.000000000000e+00       1.308545448295e+00       9.360768580347e-08       2.685780030936e-03       1.361214312176e-06 
    9       8.258457882671e+02       4.274021288013e-03       0.000000000000e+00       1.064970183222e+00       9.823239207796e-08       2.595664769967e-03       2.788772339271e-06 
   10       8.273987365270e+02       3.702909261827e-03       0.000000000000e+00       9.178501418449e-01       1.023314102842e-07       2.512964170523e-03       3.019368124692e-06 
   11       8.295114927540e+02       3.156367797571e-03       0.000000000000e+00       8.537581483705e-01       1.048047516684e-07       2.434473497729e-03       2.326626502572e-06 
   12       8.300988020091e+02       2.680496215181e-03       0.000000000000e+00       8.431687030902e-01       1.080688516683e-07       2.344204086899e-03       1.110421155267e-06 
   13       8.359717937526e+02       2.455630879857e-03       0.000000000000e+00       8.687051740495e-01       1.108934193955e-07       2.261491984020e-03      -1.373472635830e-07 
   14       8.458204345271e+02       2.484567108662e-03       0.000000000000e+00       9.234702722565e-01       1.135110255299e-07       2.201114147683e-03      -1.119652097296e-06 
   15       8.523998523254e+02       2.645495259784e-03       0.000000000000e+00       9.864015800352e-01       1.158582136672e-07       2.132107901918e-03      -1.595443144957e-06 
   16       8.597776357122e+02       2.874359127332e-03       0.000000000000e+00       1.047102629484e+00       1.179812967113e-07       2.054998878477e-03      -1.656327912680e-06 
   17       8.719133512162e+02       3.201263739599e-03       0.000000000000e+00       1.106710055169e+00       1.197155856307e-07       1.979400563435e-03      -1.371900702866e-06 
   18       8.833605092329e+02       3.659574424107e-03       0.000000000000e+00       1.169793310962e+00       1.212745501838e-07       1.915859887212e-03      -9.013245369820e-07 
   19       8.938168941246e+02       4.278408148712e-03       0.000000000000e+00       1.236092222202e+00       1.228450278338e-07       1.862980511156e-03      -3.967440688058e-07 
   20       9.052520770475e+02       5.078129519242e-03       0.000000000000e+00       1.303255061404e+00       1.241328595715e-07       1.808451081637e-03      -2.919801342547e-08 
   21       9.187922200906e+02       6.034556008783e-03       0.000000000000e+00       1.370575699923e+00       1.252219755529e-07       1.753508971958e-03       1.089172308313e-07 
   22       9.345359335688e+02       7.110217056838e-03       0.000000000000e+00       1.438126562068e+00       1.261770960082e-07       1.702564649734e-03      -1.918771758549e-08 
   23       9.498210822349e+02       8.326443551386e-03       0.000000000000e+00       1.507764535808e+00       1.270607690135e-07       1.656224423797e-03      -3.399885643978e-07 
   24       9.616152083898e+02       9.717582276269e-03       0.000000000000e+00       1.580876426505e+00       1.277783030587e-07       1.612066454503e-03      -7.051580492475e-07 
   25       9.728895461910e+02       1.126859477787e-02       0.000000000000e+00       1.652594767904e+00       1.283909169352e-07       1.571481171003e-03      -1.005521557945e-06 
   26       9.878682080337e+02       1.295010692362e-02       0.000000000000e+00       1.716262938214e+00       1.289131973418e-07       1.535463395821e-03      -1.148274293436e-06 
   27       1.004909145676e+03       1.476715218094e-02       0.000000000000e+00       1.770985656436e+00       1.293612065953e-07       1.500734284877e-03      -1.147135972396e-06 
   28       1.020714828956e+03       1.673727683530e-02       0.000000000000e+00       1.817753896972e+00       1.296710773003e-07       1.461976126133e-03      -1.064631761542e-06 
   29       1.035494673456e+03       1.887992769082e-02       0.000000000000e+00       1.856914740636e+00       1.299112125821e-07       1.420851788599e-03      -9.346926883071e-07 
   30       1.050696452114e+03       2.121779319335e-02       0.000000000000e+00       1.888805161153e+00       1.301164638177e-07       1.381727711849e-03      -7.925566496820e-07 
   31       1.067601656000e+03       2.377261142808e-02       0.000000000000e+00       1.913889003535e+00       1.302305536233e-07       1.348643198543e-03      -6.808760450408e-07 
   32       1.085679314018e+03       2.654814255148e-02       0.000000000000e+00       1.932290039071e+00       1.302933839941e-07       1.321438930178e-03      -6.168065041485e-07 
   33       1.103573122484e+03       2.954055220465e-02       0.000000000000e+00       1.944097491417e+00       1.303164835438e-07       1.297248508207e-03      -6.087790935183e-07 
   34       1.119995320108e+03       3.274589767435e-02       0.000000000000e+00       1.949193720293e+00       1.302472841619e-07       1.272276818771e-03      -6.602660437455e-07 
   35       1.135480204156e+03       3.617180266574e-02       0.000000000000e+00       1.946221110889e+00       1.301180751344e-07       1.246336126601e-03      -7.560881880831e-07 
   36       1.151246495105e+03       3.982982896806e-02       0.000000000000e+00       1.933224336906e+00       1.299488841895e-07       1.220247576534e-03      -8.676306028721e-07 
   37       1.168423653817e+03       4.373134773343e-02       0.000000000000e+00       1.908385332413e+00       1.297192236477e-07       1.194705332936e-03      -9.616916372286e-07 
   38       1.186933516640e+03       4.788371127824e-02       0.000000000000e+00       1.871696519678e+00       1.294664354124e-07       1.170343004007e-03      -1.026323647470e-06 
   39       1.206232191140e+03       5.229281526927e-02       0.000000000000e+00       1.823844498213e+00       1.292182478234e-07       1.147612084987e-03      -1.055888474948e-06 
   40       1.225591932800e+03       5.696408064808e-02       0.000000000000e+00       1.765783551640e+00       1.289524641104e-07       1.126695301224e-03      -1.044719038632e-06 
   41       1.244308375461e+03       6.190198249585e-02       0.000000000000e+00       1.698368922864e+00       1.286138076874e-07       1.107511648276e-03      -9.907242012870e-07 
   42       1.262436197505e+03       6.710853393827e-02       0.000000000000e+00       1.621072986157e+00       1.282226991549e-07       1.089890443808e-03      -9.081562213799e-07 
   43       1.280269945727e+03       7.258425144938e-02       0.000000000000e+00       1.532879204880e+00       1.278069106800e-07       1.073377319020e-03      -8.211002320698e-07 
   44       1.298145310046e+03       7.832848647719e-02       0.000000000000e+00       1.432619945059e+00       1.273658818357e-07       1.057117926988e-03      -7.612918021243e-07 
   45       1.316375136621e+03       8.434072533757e-02       0.000000000000e+00       1.319253414380e+00       1.268807280880e-07       1.040150181462e-03      -7.597033469155e-07 
   46       1.335031049993e+03       9.062510283346e-02       0.000000000000e+00       1.192815975504e+00       1.263753786473e-07       1.022592785612e-03      -8.145114118551e-07 
   47       1.354099147237e+03       9.718712937897e-02       0.000000000000e+00       1.053738103294e+00       1.258752560381e-07       1.004876595245e-03      -9.104990037871e-07 
   48       1.373537662072e+03       1.040324586676e-01       0.000000000000e+00       9.025891687271e-01       1.253859889785e-07       9.874276507638e-04      -1.026533625207e-06 
   49       1.393274721717e+03       1.111669023397e-01       0.000000000000e+00       7.400842835550e-01       1.248875044083e-07       9.706592363081e-04      -1.134872898942e-06 
   50       1.413229754807e+03       1.185955812950e-01       0.000000000000e+00       5.668276186187e-01       1.243459178319e-07       9.549087846945e-04      -1.208297119755e-06 
   51       1.433389769765e+03       1.263200740205e-01       0.000000000000e+00       3.824443410291e-01       1.237736778614e-07       9.402385245469e-04      -1.246734663282e-06 
   52       1.453749903926e+03       1.343405195622e-01       0.000000000000e+00       1.862248825667e-01       1.231898205116e-07       9.265399404169e-04      -1.260080538396e-06 
   53       1.474290478752e+03       1.426563878819e-01       0.000000000000e+00      -2.263755258972e-02       1.226012594478e-07       9.135640795313e-04      -1.261574704373e-06 
   54       1.494975869693e+03       1.512664538967e-01       0.000000000000e+00      -2.450525444402e-01       1.219994469090e-07       9.009026358284e-04      -1.268154130476e-06 
   55       1.515770111681e+03       1.601692438864e-01       0.000000000000e+00      -4.818533980918e-01       1.213680865936e-07       8.881175284196e-04      -1.296352261725e-06 
   56       1.536690844519e+03       1.693645640580e-01       0.000000000000e+00      -7.331951470210e-01       1.207200139268e-07       8.752340559413e-04      -1.347312929508e-06 
   57       1.557766789138e+03       1.788523062366e-01       0.000000000000e+00      -9.990167336783e-01       1.200717133610e-07       8.623945427800e-04      -1.416902249278e-06 
   58       1.579021718361e+03       1.886320013734e-01       0.000000000000e+00      -1.279210921943e+00       1.194316022355e-07       8.497204034637e-04      -1.499575640290e-06 
   59       1.600473978793e+03       1.987028119891e-01       0.000000000000e+00      -1.573622660882e+00       1.187979620856e-07       8.373077601964e-04      -1.588239136533e-06 
   60       1.622136012708e+03       2.090635246160e-01       0.000000000000e+00      -1.882047448511e+00       1.181566811966e-07       8.252228535157e-04      -1.674105673220e-06 
   61       1.644016543207e+03       2.197120985756e-01       0.000000000000e+00      -2.204248185394e+00       1.174887972915e-07       8.135092908238e-04      -1.748586617511e-06 
   62       1.666128784504e+03       2.306442110521e-01       0.000000000000e+00      -2.540013857744e+00       1.168031587202e-07       8.022239550959e-04      -1.810068085090e-06 
   63       1.688483234493e+03       2.418543705483e-01       0.000000000000e+00      -2.889111182778e+00       1.161137859729e-07       7.914045457068e-04      -1.859136392538e-06 
   64       1.711084788281e+03       2.533363105290e-01       0.000000000000e+00      -3.251266252424e+00       1.154300651978e-07       7.810544380371e-04      -1.896767168285e-06 
   65       1.733932344579e+03       2.650829677863e-01       0.000000000000e+00      -3.626163483742e+00       1.147556061301e-07       7.711382808675e-04      -1.924363363628e-06 
   66       1.757018412092e+03       2.770864608059e-01       0.000000000000e+00      -4.013444569352e+00       1.140870041591e-07       7.615774241824e-04      -1.943794555232e-06 
   67       1.780328715908e+03       2.893380681325e-01       0.000000000000e+00      -4.412707427867e+00       1.134125034852e-07       7.522451773825e-04      -1.957437539098e-06 
   68       1.803848438267e+03       3.018290116312e-01       0.000000000000e+00      -4.823584502098e+00       1.127177893248e-07       7.430094387042e-04      -1.967672782200e-06 
   69       1.827583289094e+03       3.145530389270e-01       0.000000000000e+00      -5.245998422895e+00       1.120095899888e-07       7.338871385266e-04      -1.975097383282e-06 
   70       1.851542017433e+03       3.275043277752e-01       0.000000000000e+00      -5.679956502056e+00       1.112988885537e-07       7.249276101535e-04      -1.979847384478e-06 
   71       1.875729934906e+03       3.406767264345e-01       0.000000000000e+00      -6.125476930378e+00       1.105939126162e-07       7.161674270671e-04      -1.982099496494e-06 
   72       1.900148691788e+03       3.540637526190e-01       0.000000000000e+00      -6.582589757435e+00       1.098994997906e-07       7.076286739212e-04      -1.982073855890e-06 
   73       1.924796053070e+03       3.676585924490e-01       0.000000000000e+00      -7.051337871365e+00       1.092164148153e-07       6.993171544453e-04      -1.980036851926e-06 
   74       1.949665674528e+03       3.814540994026e-01       0.000000000000e+00      -7.531777978653e+00       1.085406168726e-07       6.912205362612e-04      -1.976304022980e-06 
   75       1.974746878790e+03       3.954427932670e-01       0.000000000000e+00      -8.023981583909e+00       1.078624757282e-07       6.833064326119e-04      -1.971243022536e-06 
   76       2.000029209868e+03       4.096165178913e-01       0.000000000000e+00      -8.527956712904e+00       1.071710233470e-07       6.755376235475e-04      -1.965233220835e-06 
   77       2.025517550608e+03       4.239653447100e-01       0.000000000000e+00      -9.043394436443e+00       1.064704981697e-07       6.679270870812e-04      -1.958524702473e-06 
   78       2.051219367943e+03       4.384784664375e-01       0.000000000000e+00      -9.569877689217e+00       1.057682227410e-07       6.604943354112e-04      -1.951346364519e-06 
   79       2.077140055091e+03       4.531445126137e-01       0.000000000000e+00      -1.010695579096e+01       1.050696839528e-07       6.532484420058e-04      -1.943946534394e-06 
   80       2.103282805600e+03       4.679515415590e-01       0.000000000000e+00      -1.065414380103e+01       1.043781653895e-07       6.461869215070e-04      -1.936593471990e-06 
   81       2.129648487412e+03       4.828870323287e-01       0.000000000000e+00      -1.121092187291e+01       1.036943546767e-07       6.392945742125e-04      -1.929575871509e-06 
   82       2.156235516907e+03       4.979378766679e-01       0.000000000000e+00      -1.177673460887e+01       1.030159251900e-07       6.325422951373e-04      -1.923203363012e-06 
   83       2.183039732962e+03       5.130903709667e-01       0.000000000000e+00      -1.235099041440e+01       1.023370914757e-07       6.258858476550e-04      -1.917807013682e-06 
   84       2.210057427095e+03       5.283307259330e-01       0.000000000000e+00      -1.293312214003e+01       1.016514031838e-07       6.192819217768e-04      -1.913680804460e-06 
   85       2.237295286934e+03       5.436467103161e-01       0.000000000000e+00      -1.352278197110e+01       1.009623010951e-07       6.127437750548e-04      -1.910888093633e-06 
   86       2.264761877913e+03       5.590262661943e-01       0.000000000000e+00      -1.411967781337e+01       1.002751480718e-07       6.062970487941e-04      -1.909408148025e-06 
   87       2.292464561918e+03       5.744570161306e-01       0.000000000000e+00      -1.472351525741e+01       9.959405087509e-08       5.999631749093e-04      -1.909188528144e-06 
   88       2.320409424384e+03       5.899262638286e-01       0.000000000000e+00      -1.533399796320e+01       9.892163560045e-08       5.937588870971e-04      -1.910142471064e-06 
   89       2.348601201390e+03       6.054209947887e-01       0.000000000000e+00      -1.595082804471e+01       9.825880932291e-08       5.876957172599e-04      -1.912146202574e-06 
   90       2.377043206761e+03       6.209278769638e-01       0.000000000000e+00      -1.657370645449e+01       9.760450763110e-08       5.817794771771e-04      -1.915036178613e-06 
   91       2.405737259162e+03       6.364332614152e-01       0.000000000000e+00      -1.720233336831e+01       9.695542772622e-08       5.760097254267e-04      -1.918606255972e-06 
   92       2.434683609199e+03       6.519231829690e-01       0.000000000000e+00      -1.783640856970e+01       9.630574676350e-08       5.703792195558e-04      -1.922604792265e-06 
   93       2.463881340564e+03       6.673835382208e-01       0.000000000000e+00      -1.847560087817e+01       9.564950440669e-08       5.648790335618e-04      -1.926785462350e-06 
   94       2.493329800862e+03       6.828006487520e-01       0.000000000000e+00      -1.911945033874e+01       9.498926038706e-08       5.595164944244e-04      -1.931079533258e-06 
   95       2.523027252195e+03       6.981607842284e-01       0.000000000000e+00      -1.976745196434e+01       9.432946087984e-08       5.543002351536e-04      -1.935456819027e-06 
   96       2.552970350776e+03       7.134499956475e-01       0.000000000000e+00      -2.041908534167e+01       9.367386751560e-08       5.492345035741e-04      -1.939874351382e-06 
   97       2.583154080533e+03       7.286541184287e-01       0.000000000000e+00      -2.107381459083e+01       9.302543700685e-08       5.443187846599e-04      -1.944275435850e-06 
   98       2.613571686718e+03       7.437587755044e-01       0.000000000000e+00      -2.173108832501e+01       9.238619394942e-08       5.395474131215e-04      -1.948588684540e-06 
   99       2.644214609506e+03       7.587493804096e-01       0.000000000000e+00      -2.239033961014e+01       9.175709665251e-08       5.349091762451e-04      -1.952727025561e-06 
  100       2.675072417604e+03       7.736111403728e-01       0.000000000000e+00      -2.305098592456e+01       9.113789585116e-08       5.303869069859e-04      -1.956586689112e-06 
  101       2.706132741853e+03       7.883290594062e-01       0.000000000000e+00      -2.371242911868e+01       9.052698615502e-08       5.259570673122e-04      -1.960046170211e-06 
  102       2.737381208835e+03       8.028879413962e-01       0.000000000000e+00      -2.437405537461e+01       8.992125008717e-08       5.215893218037e-04      -1.962965168088e-06 
  103       2.768801374475e+03       8.172723931938e-01       0.000000000000e+00      -2.503523516589e+01       8.931589456680e-08       5.172461015017e-04      -1.965183502223e-06 
  104       2.800378380016e+03       8.314672228593e-01       0.000000000000e+00      -2.569535096085e+01       8.870622433006e-08       5.128930193471e-04      -1.966558804259e-06 
  105       2.832110625407e+03       8.454586890093e-01       0.000000000000e+00      -2.635388468182e+01       8.809390088736e-08       5.085335170159e-04      -1.967090781557e-06 
  106       2.863999556379e+03       8.592334267853e-01       0.000000000000e+00      -2.701034204022e+01       8.748203753137e-08       5.041803855244e-04      -1.966819990681e-06 
  107       2.896046057709e+03       8.727780751132e-01       0.000000000000e+00      -2.766422610915e+01       8.687333732747e-08       4.998454054503e-04      -1.965791349819e-06 
