# total lensed [l(l+1)/2pi] C_l's (units: [microK]^2)
# for l=2 to 2600, i.e. number of multipoles equal to 2599
#
# -> if you don't want to see such a header, set 'headers' to 'no' in input file
# -> for CMB lensing (d), these are C_l^dd for the deflection field.
#    Remember the conversion factors:
#    C_l^dd (deflection) = l(l+1) C_l^phi-phi
#    C_l^gg (shear/convergence) = 1/4 (l(l+1))^2 C_l^phi-phi
#
# 1:l     2:TT                     3:EE                     4:BB                     5:TE                     6:dd                     7:dT                     8:dE                 
    2       1.073272469897e+03       3.275494387236e-02       1.223219013483e-06       2.647347834800e+00       4.574390665298e-08       3.196272300648e-03      -1.262272056550e-05 
    3       1.018022916083e+03       4.416422333958e-02       2.446635305343e-06       3.045850150286e+00       5.567283597686e-08       3.255653035326e-03      -1.390611787046e-05 
    4       9.630542268093e+02       4.035485899428e-02       4.078176446828e-06       2.912228209975e+00       6.394941198405e-08       3.223794254152e-03      -1.222089257467e-05 
    5       9.183768867297e+02       2.851681241056e-02       6.118139501396e-06       2.535300566506e+00       7.104868176258e-08       3.150436460236e-03      -8.848407213948e-06 
    6       8.860266183462e+02       1.672827848696e-02       8.566922935847e-06       2.081401960365e+00       7.714022202489e-08       3.056311698952e-03      -4.902092258238e-06 
    7       8.668633855576e+02       9.082684865219e-03       1.142504178094e-05       1.659803761193e+00       8.242291433586e-08       2.956519220497e-03      -1.296013227070e-06 
    8       8.514576641249e+02       5.558313921305e-03       1.469314309160e-05       1.321534460729e+00       8.705076838938e-08       2.859436004148e-03       1.370031417911e-06 
    9       8.418004877100e+02       4.317644809006e-03       1.837202045761e-05       1.077668933950e+00       9.113425064482e-08       2.772805879919e-03       2.827222882741e-06 
   10       8.427232159832e+02       3.751095795873e-03       2.246262629213e-05       9.275052040259e-01       9.474774984165e-08       2.698301955021e-03       3.093538891043e-06 
   11       8.458157234176e+02       3.210933318602e-03       2.696608067069e-05       8.610880170058e-01       9.718557826528e-08       2.641142693596e-03       2.421414354210e-06 
   12       8.458476778523e+02       2.731159493651e-03       3.188367560594e-05       8.485990001489e-01       9.997533085756e-08       2.570723811725e-03       1.238798417290e-06 
   13       8.503304066552e+02       2.496939811010e-03       3.721687381986e-05       8.709201257211e-01       1.025678430611e-07       2.485817921923e-03      -4.372810523918e-08 
   14       8.604219611402e+02       2.524775344196e-03       4.296730130761e-05       9.239281455516e-01       1.047860021167e-07       2.429935277485e-03      -1.010583108725e-06 
   15       8.670374960304e+02       2.695988443340e-03       4.913673326588e-05       9.867180402947e-01       1.067022444787e-07       2.366366981107e-03      -1.527710976222e-06 
   16       8.726247465500e+02       2.932691226303e-03       5.572707327089e-05       1.049558063218e+00       1.084760302631e-07       2.297150389408e-03      -1.585515847866e-06 
   17       8.837508600755e+02       3.258705327258e-03       6.274032592331e-05       1.108801422379e+00       1.101190708154e-07       2.236017286410e-03      -1.326040998688e-06 
   18       8.959751317631e+02       3.734326526391e-03       7.017856720938e-05       1.174000237894e+00       1.113746259886e-07       2.174125927786e-03      -8.700548006769e-07 
   19       9.072011365572e+02       4.376251445027e-03       7.804388757915e-05       1.242240278845e+00       1.124397834609e-07       2.113985976006e-03      -3.540288942366e-07 
   20       9.171608697886e+02       5.177935062732e-03       8.633838915457e-05       1.305775813284e+00       1.134404067554e-07       2.060096727978e-03       3.123526551874e-08 
   21       9.285769315901e+02       6.125106291564e-03       9.506409083786e-05       1.369227565048e+00       1.144267774814e-07       2.012780904462e-03       1.835232227655e-07 
   22       9.442412805163e+02       7.202108607744e-03       1.042229300355e-04       1.440415050458e+00       1.151928005198e-07       1.967571132314e-03       5.984597752830e-08 
   23       9.608381600495e+02       8.430177350523e-03       1.138166735657e-04       1.515938417487e+00       1.158096137277e-07       1.924393571276e-03      -2.649995408156e-07 
   24       9.735405833859e+02       9.835551987290e-03       1.238469187826e-04       1.588469463975e+00       1.163391828748e-07       1.883129050692e-03      -6.378469070140e-07 
   25       9.847401887897e+02       1.139708179160e-02       1.343150173734e-04       1.655414987633e+00       1.168225604703e-07       1.844854559887e-03      -9.483429485162e-07 
   26       9.986265759500e+02       1.308158380071e-02       1.452220742529e-04       1.715787209312e+00       1.171822465844e-07       1.809552024537e-03      -1.103230208303e-06 
   27       1.014368471018e+03       1.490184059558e-02       1.565688973192e-04       1.769677374371e+00       1.174431409584e-07       1.775794142446e-03      -1.113443188349e-06 
   28       1.029662538722e+03       1.688563525023e-02       1.683559988782e-04       1.817496681041e+00       1.176014728664e-07       1.740926148307e-03      -1.037822401086e-06 
   29       1.044627148071e+03       1.905026166650e-02       1.805836119229e-04       1.858848567589e+00       1.177275434319e-07       1.705950630321e-03      -9.094304121777e-07 
   30       1.060184680445e+03       2.141109883154e-02       1.932516393313e-04       1.893070478129e+00       1.178356632304e-07       1.672678315114e-03      -7.639877179210e-07 
   31       1.077081145957e+03       2.398272252960e-02       2.063596714904e-04       1.919601422998e+00       1.178495126389e-07       1.642262248032e-03      -6.453931231618e-07 
   32       1.094796766412e+03       2.677016339961e-02       2.199071529121e-04       1.938487673025e+00       1.178035095969e-07       1.614953837539e-03      -5.730428739056e-07 
   33       1.112186212300e+03       2.977417602615e-02       2.338932398470e-04       1.950082171092e+00       1.177171136571e-07       1.589845034418e-03      -5.587393105320e-07 
   34       1.128183788657e+03       3.299518268946e-02       2.483168234758e-04       1.954603513299e+00       1.175536956784e-07       1.565288519646e-03      -6.095098013124e-07 
   35       1.143385057504e+03       3.643974248432e-02       2.631768342658e-04       1.951014230970e+00       1.173456214677e-07       1.541197358891e-03      -7.099678732661e-07 
   36       1.159022503816e+03       4.011628221006e-02       2.784720193716e-04       1.937730895352e+00       1.171102141183e-07       1.517598308323e-03      -8.295264758902e-07 
   37       1.176221441071e+03       4.403315190708e-02       2.942010015372e-04       1.913255282933e+00       1.168266693407e-07       1.494213176392e-03      -9.323996425130e-07 
   38       1.194828938136e+03       4.819776661386e-02       3.103627985516e-04       1.877392831679e+00       1.165281073682e-07       1.471374866078e-03      -1.004610918142e-06 
   39       1.214189027471e+03       5.261717314725e-02       3.269564688163e-04       1.830437497390e+00       1.162386175437e-07       1.449398037979e-03      -1.038271882548e-06 
   40       1.233436622471e+03       5.729826449236e-02       3.439809730151e-04       1.772859493705e+00       1.159356972707e-07       1.428270181040e-03      -1.024872859522e-06 
   41       1.251750922449e+03       6.224690361181e-02       3.614353451372e-04       1.705114135897e+00       1.155661975842e-07       1.407750234054e-03      -9.599805582343e-07 
   42       1.269251527717e+03       6.746498197849e-02       3.793192708727e-04       1.626967428597e+00       1.151483562069e-07       1.387903600284e-03      -8.601076108662e-07 
   43       1.286368352423e+03       7.295238238705e-02       3.976326986469e-04       1.537969210556e+00       1.147080531020e-07       1.368704251390e-03      -7.539568340362e-07 
   44       1.303601285778e+03       7.870768935284e-02       4.163756976905e-04       1.437633246159e+00       1.142456727121e-07       1.349840461679e-03      -6.794123870417e-07 
   45       1.321415149100e+03       8.472989237192e-02       4.355485303065e-04       1.325501101666e+00       1.137450285014e-07       1.330887661756e-03      -6.734906751721e-07 
   46       1.339879553402e+03       9.102427174974e-02       4.551518649933e-04       1.201363709377e+00       1.132281547669e-07       1.312045408953e-03      -7.340603559437e-07 
   47       1.358926834283e+03       9.759815053592e-02       4.751866482870e-04       1.065100871664e+00       1.127181622090e-07       1.293640209083e-03      -8.430417171139e-07 
   48       1.378448012257e+03       1.044593021671e-01       4.956540660407e-04       9.166208884323e-01       1.122200598108e-07       1.275912251901e-03      -9.753536787458e-07 
   49       1.398289768650e+03       1.116159810426e-01       5.165555593589e-04       7.558613711180e-01       1.117153668299e-07       1.258996166680e-03      -1.098092951273e-06 
   50       1.418293588886e+03       1.190751718858e-01       5.378927015994e-04       5.827651870813e-01       1.111730046008e-07       1.242929305839e-03      -1.179001020745e-06 
   51       1.438432734115e+03       1.268367066882e-01       5.596667530476e-04       3.971987065074e-01       1.106043217557e-07       1.227730010754e-03      -1.218062105224e-06 
   52       1.458707221632e+03       1.348976037281e-01       5.818790129077e-04       1.990127715985e-01       1.100267671610e-07       1.213315502271e-03      -1.227118737460e-06 
   53       1.479103891893e+03       1.432536572329e-01       6.045309568458e-04      -1.193472120521e-02       1.094468039938e-07       1.199457244484e-03      -1.222018042372e-06 
   54       1.499595368757e+03       1.518993841322e-01       6.276242463868e-04      -2.357791775604e-01       1.088568838791e-07       1.185760731700e-03      -1.223033427290e-06 
   55       1.520155356239e+03       1.608295792655e-01       6.511604067613e-04      -4.726645064795e-01       1.082424114275e-07       1.171798672694e-03      -1.249955745204e-06 
   56       1.540811360719e+03       1.700445554088e-01       6.751397452049e-04      -7.227923299599e-01       1.076150755506e-07       1.157619815136e-03      -1.304152539187e-06 
   57       1.561603244837e+03       1.795461117182e-01       6.995621804005e-04      -9.863856222314e-01       1.069898037948e-07       1.143390267900e-03      -1.380674028307e-06 
   58       1.582567643998e+03       1.893360485421e-01       7.244275470405e-04      -1.263675850254e+00       1.063741610173e-07       1.129250139649e-03      -1.472882885591e-06 
   59       1.603737563100e+03       1.994161768422e-01       7.497355923061e-04      -1.554903908425e+00       1.057664686996e-07       1.115308135926e-03      -1.572288489330e-06 
   60       1.625141973260e+03       2.097883276142e-01       7.754859723467e-04      -1.860321053291e+00       1.051537529138e-07       1.101635901033e-03      -1.668375173996e-06 
   61       1.646803650074e+03       2.204531738056e-01       8.016780432879e-04      -2.180101072537e+00       1.045186101410e-07       1.088280277350e-03      -1.750872090442e-06 
   62       1.668733033726e+03       2.314063657514e-01       8.283101874019e-04      -2.514051639739e+00       1.038689295866e-07       1.075318862958e-03      -1.817883129758e-06 
   63       1.690932268827e+03       2.426415410652e-01       8.553803287531e-04      -2.861839533892e+00       1.032172971867e-07       1.062812475287e-03      -1.870159872747e-06 
   64       1.713396391296e+03       2.541514078990e-01       8.828861154817e-04      -3.223071843484e+00       1.025720763100e-07       1.050783801589e-03      -1.908929921518e-06 
   65       1.736112869290e+03       2.659277166856e-01       9.108249097640e-04      -3.597294084735e+00       1.019363729620e-07       1.039212307092e-03      -1.935943292440e-06 
   66       1.759061144141e+03       2.779612318808e-01       9.391937777718e-04      -3.983988319837e+00       1.013069142845e-07       1.028028944189e-03      -1.953520385626e-06 
   67       1.782212171286e+03       2.902417037053e-01       9.679894796324e-04      -4.382571275193e+00       1.006728375960e-07       1.017110662660e-03      -1.964601530954e-06 
   68       1.805538488624e+03       3.027590036448e-01       9.972088915026e-04      -4.792515758914e+00       1.000209729189e-07       1.006324657531e-03      -1.972118463098e-06 
   69       1.829047816759e+03       3.155068612878e-01       1.026850393543e-03      -5.213747688396e+00       9.935734667202e-08       9.956900448219e-04      -1.976766447216e-06 
   70       1.852755473650e+03       3.284798373849e-01       1.056912746439e-03      -5.646326500136e+00       9.869190013828e-08       9.852547833227e-04      -1.978650833874e-06 
   71       1.876674263153e+03       3.416722285655e-01       1.087394685166e-03      -6.090330217372e+00       9.803211411722e-08       9.750476435425e-04      -1.977911074892e-06 
   72       1.900814285201e+03       3.550780688432e-01       1.118294919998e-03      -6.545856721763e+00       9.738244107389e-08       9.650757784041e-04      -1.974722958614e-06 
   73       1.925182745980e+03       3.686911311219e-01       1.149612137521e-03      -7.013025025054e+00       9.674369396868e-08       9.553222068401e-04      -1.969300899137e-06 
   74       1.949783768105e+03       3.825049287018e-01       1.181345001645e-03      -7.491976540755e+00       9.611239052012e-08       9.457432102958e-04      -1.961900279488e-06 
   75       1.974618200796e+03       3.965127167848e-01       1.213492154613e-03      -7.982876355813e+00       9.548005165222e-08       9.362656421358e-04      -1.952819848762e-06 
   76       1.999685188499e+03       4.107069795426e-01       1.246052790347e-03      -8.485808491332e+00       9.483698350521e-08       9.268147902439e-04      -1.942411811989e-06 
   77       2.024987626593e+03       4.250777800058e-01       1.279028492942e-03      -9.000436823292e+00       9.418700512171e-08       9.174131723631e-04      -1.931109679550e-06 
   78       2.050527360306e+03       4.396141106068e-01       1.312421736825e-03      -9.526284352189e+00       9.353664981501e-08       9.081035663789e-04      -1.919412373172e-06 
   79       2.076303363257e+03       4.543043720265e-01       1.346235356706e-03      -1.006283284098e+01       9.289077979679e-08       8.989196062688e-04      -1.907880265938e-06 
   80       2.102311583685e+03       4.691363641510e-01       1.380472560327e-03      -1.060952191294e+01       9.225225392327e-08       8.898846395468e-04      -1.897138343708e-06 
   81       2.128544790688e+03       4.840972770285e-01       1.415136941207e-03      -1.116574814944e+01       9.162157290282e-08       8.810105468916e-04      -1.887879432769e-06 
   82       2.154992420459e+03       4.991736818260e-01       1.450232491390e-03      -1.173086418786e+01       9.099650138327e-08       8.722965239604e-04      -1.880867493735e-06 
   83       2.181640422513e+03       5.143515217865e-01       1.485763614196e-03      -1.230417781934e+01       9.037166633734e-08       8.637278253867e-04      -1.876940981682e-06 
   84       2.208476708764e+03       5.296166984869e-01       1.521734683970e-03      -1.288503796112e+01       8.974110108241e-08       8.552865957728e-04      -1.876802197038e-06 
   85       2.235508875463e+03       5.449569620889e-01       1.558148613567e-03      -1.347311092521e+01       8.910784913642e-08       8.469903972541e-04      -1.880317024655e-06 
   86       2.262749150918e+03       5.603603193290e-01       1.595008071656e-03      -1.406814850806e+01       8.847671975602e-08       8.388608423347e-04      -1.887048132036e-06 
   87       2.290208995152e+03       5.758144670258e-01       1.632315919659e-03      -1.466990573791e+01       8.785140099401e-08       8.309115283776e-04      -1.896446776344e-06 
   88       2.317899040305e+03       5.913067930423e-01       1.670075216882e-03      -1.527814143265e+01       8.723425930245e-08       8.231472328117e-04      -1.907845190882e-06 
   89       2.345829031033e+03       6.068243772477e-01       1.708289225650e-03      -1.589261875780e+01       8.662612683508e-08       8.155630849938e-04      -1.920448782333e-06 
   90       2.374007764907e+03       6.223539924793e-01       1.746961416443e-03      -1.651310578436e+01       8.602607616083e-08       8.081437147251e-04      -1.933328138773e-06 
   91       2.402443032816e+03       6.378821055044e-01       1.786095473029e-03      -1.713937604672e+01       8.543118210059e-08       8.008623774216e-04      -1.945410848436e-06 
   92       2.431141559362e+03       6.533948779824e-01       1.825695297599e-03      -1.777120910061e+01       8.483627039930e-08       7.936800559400e-04      -1.955473129256e-06 
   93       2.460108007119e+03       6.688783177271e-01       1.865764363683e-03      -1.840834175286e+01       8.423604167124e-08       7.865589205568e-04      -1.962418119269e-06 
   94       2.489341947537e+03       6.843187564299e-01       1.906303652429e-03      -1.905031214844e+01       8.363278982196e-08       7.795082598389e-04      -1.966202100418e-06 
   95       2.518840322147e+03       6.997024458989e-01       1.947313413991e-03      -1.969659315649e+01       8.303048759862e-08       7.725471669600e-04      -1.967100621879e-06 
   96       2.548598266632e+03       7.150154171450e-01       1.988793788319e-03      -2.034663949149e+01       8.243249417711e-08       7.656906748617e-04      -1.965442605092e-06 
   97       2.578609038378e+03       7.302434834067e-01       2.030744801344e-03      -2.099988759400e+01       8.184144758882e-08       7.589493589337e-04      -1.961613345286e-06 
   98       2.608863944024e+03       7.453722431753e-01       2.073166361154e-03      -2.165575551146e+01       8.125915105421e-08       7.523289290178e-04      -1.956057576438e-06 
   99       2.639352267010e+03       7.603870832196e-01       2.116058254180e-03      -2.231364277898e+01       8.068645309286e-08       7.458298107339e-04      -1.949282599681e-06 
  100       2.670061195128e+03       7.752731816118e-01       2.159420141378e-03      -2.297293030016e+01       8.012312127947e-08       7.394467161296e-04      -1.941861475160e-06 
  101       2.700975748070e+03       7.900155107515e-01       2.203251554404e-03      -2.363298022782e+01       7.956770951550e-08       7.331682036521e-04      -1.934436277325e-06 
  102       2.732078704980e+03       8.045988403917e-01       2.247551891802e-03      -2.429313584484e+01       7.901741868587e-08       7.269762274433e-04      -1.927721413672e-06 
  103       2.763350532001e+03       8.190077406631e-01       2.292320415182e-03      -2.495272144491e+01       7.846795057043e-08       7.208456759578e-04      -1.922507006932e-06 
  104       2.794773645853e+03       8.332269970634e-01       2.337557196796e-03      -2.561108010681e+01       7.791509331776e-08       7.147530449780e-04      -1.919488361949e-06 
  105       2.826346016530e+03       8.472429127518e-01       2.383266116261e-03      -2.626769308543e+01       7.736031683617e-08       7.087055106151e-04      -1.918707197159e-06 
  106       2.858069275616e+03       8.610421886338e-01       2.429452263415e-03      -2.692207640153e+01       7.680638802889e-08       7.027168485448e-04      -1.920003950256e-06 
  107       2.889944519842e+03       8.746115345681e-01       2.476121029630e-03      -2.757374468215e+01       7.625570635586e-08       6.967986072044e-04      -1.923179748034e-06 
