# Matter power spectrum P(k) at redshift z=3
# for k=1.04945e-05 to 1.4771 h/Mpc,
# number of wavenumbers equal to 615
#    1:k (h/Mpc)              2:P (Mpc/h)^3        
       1.049447894843e-05       4.779301960328e+00 
       2.340367804213e-05       1.038230816568e+01 
       3.635853175762e-05       1.589840285650e+01 
       4.939404981020e-05       2.138263482119e+01 
       6.254582401111e-05       2.686706381773e+01 
       7.585034701787e-05       3.237615836075e+01 
       8.934534132641e-05       3.793113169496e+01 
       1.030701028981e-04       4.355172921889e+01 
       1.170658638485e-04       4.925715353511e+01 
       1.313761786573e-04       5.506663226607e+01 
       1.460473383665e-04       6.099981900293e+01 
       1.611288171683e-04       6.707711101919e+01 
       1.766737556010e-04       7.331992488092e+01 
       1.927394841889e-04       7.975095190281e+01 
       2.093880906823e-04       8.639440580585e+01 
       2.266870329427e-04       9.327626954264e+01 
       2.447097978035e-04       1.004245447540e+02 
       2.635366036878e-04       1.078698557708e+02 
       2.832551411051e-04       1.156443235970e+02 
       3.039613400430e-04       1.237838514538e+02 
       3.257601463183e-04       1.323323164234e+02 
       3.487662797560e-04       1.413213352517e+02 
       3.731049352309e-04       1.508010879184e+02 
       3.989123728880e-04       1.608209149337e+02 
       4.263363262953e-04       1.714322800195e+02 
       4.555361374528e-04       1.826878101005e+02 
       4.866825069177e-04       1.946527183768e+02 
       5.199567284886e-04       2.073856010079e+02 
       5.555492652246e-04       2.209498643510e+02 
       5.936575231323e-04       2.354096724791e+02 
       6.344826982703e-04       2.508280043979e+02 
       6.782256203700e-04       2.672979092866e+02 
       7.250815977430e-04       2.848126903856e+02 
       7.752343855937e-04       3.034991136887e+02 
       8.288495453430e-04       3.233880282337e+02 
       8.860676167767e-04       3.443477973890e+02 
       9.469976565192e-04       3.666360673820e+02 
       1.011711767745e-03       3.900690425479e+02 
       1.080241223639e-03       4.147549204586e+02 
       1.152574655214e-03       4.405971273650e+02 
       1.228658545284e-03       4.674882370615e+02 
       1.308399986893e-03       4.954190036989e+02 
       1.391671386811e-03       5.242593903846e+02 
       1.477104874446e-03       5.535130490192e+02 
       1.478316582449e-03       5.539255702075e+02 
       1.568157732720e-03       5.844156408557e+02 
       1.661002348183e-03       6.155744990259e+02 
       1.756649922560e-03       6.472627856749e+02 
       1.854897778922e-03       6.794046547445e+02 
       1.955545909287e-03       7.118873516508e+02 
       2.058400734833e-03       7.446823408354e+02 
       2.163277827351e-03       7.776555716989e+02 
       2.270003705994e-03       8.107573671992e+02 
       2.378416860634e-03       8.439228493679e+02 
       2.488368162589e-03       8.770398423470e+02 
       2.599720814563e-03       9.101089393204e+02 
       2.712349972448e-03       9.430425326383e+02 
       2.826142148362e-03       9.758066644268e+02 
       2.940994480966e-03       1.008370771806e+03 
       3.056813937958e-03       1.040700247353e+03 
       3.173516497801e-03       1.072756828522e+03 
       3.291026343326e-03       1.104513940917e+03 
       3.409275088705e-03       1.135952308421e+03 
       3.528201052947e-03       1.167050832182e+03 
       3.647748586969e-03       1.197793178246e+03 
       3.767867457063e-03       1.228179019024e+03 
       3.888512284658e-03       1.258176302207e+03 
       4.009642040381e-03       1.287782397942e+03 
       4.131219589315e-03       1.316989107365e+03 
       4.253211283678e-03       1.345799374565e+03 
       4.375586598924e-03       1.374184895392e+03 
       4.498317809224e-03       1.402160923948e+03 
       4.621379698402e-03       1.429718485648e+03 
       4.744749302645e-03       1.456947612835e+03 
       4.868405681575e-03       1.486243295437e+03 
       4.992329714539e-03       1.483984182816e+03 
       5.116503919315e-03       1.541910656226e+03 
       5.240912290666e-03       1.509274391794e+03 
       5.365540156501e-03       1.556222137916e+03 
       5.490374049608e-03       1.568366952165e+03 
       5.615401593169e-03       1.608787337050e+03 
       5.740611398487e-03       1.643687102558e+03 
       5.865992973513e-03       1.638195802941e+03 
       5.991536640951e-03       1.670162722829e+03 
       6.117233464844e-03       1.686313399718e+03 
       6.243075184694e-03       1.715209300791e+03 
       6.369054156265e-03       1.742050948693e+03 
       6.495163298322e-03       1.748752343445e+03 
       6.621396044664e-03       1.773491966067e+03 
       6.747746300858e-03       1.797823261370e+03 
       6.874208405174e-03       1.813981453537e+03 
       7.000777093264e-03       1.836193749356e+03 
       7.127447466187e-03       1.857119750270e+03 
       7.254214961438e-03       1.869557509038e+03 
       7.381075326651e-03       1.889258782884e+03 
       7.508024595712e-03       1.908906259341e+03 
       7.635059067039e-03       1.927592713272e+03 
       7.762175283794e-03       1.943032691693e+03 
       7.889370015854e-03       1.960751879148e+03 
       8.016640243352e-03       1.978011690932e+03 
       8.143983141644e-03       1.991136383376e+03 
       8.271396067561e-03       2.007531228913e+03 
       8.398876546816e-03       2.023509440821e+03 
       8.526422262476e-03       2.038974458706e+03 
       8.654031044375e-03       2.053024312124e+03 
       8.781700859402e-03       2.067743315289e+03 
       8.909429802568e-03       2.082172066717e+03 
       9.037216088799e-03       2.096119816032e+03 
       9.165058045369e-03       2.108244336443e+03 
       9.292954104932e-03       2.121515847490e+03 
       9.420902799100e-03       2.134564777500e+03 
       9.548902752510e-03       2.147226311412e+03 
       9.676952677348e-03       2.159006873109e+03 
       9.805051368284e-03       2.171039042264e+03 
       9.933197697790e-03       2.182729492248e+03 
       1.006139061181e-02       2.194085199787e+03 
       1.018962912573e-02       2.204482338203e+03 
       1.031791232068e-02       2.215266621152e+03 
       1.044623934008e-02       2.225746604896e+03 
       1.057460938643e-02       2.235938414176e+03 
       1.070302171833e-02       2.245853555157e+03 
       1.083147564777e-02       2.255248854066e+03 
       1.095997053750e-02       2.264592369961e+03 
       1.108850579872e-02       2.273661606090e+03 
       1.121708088881e-02       2.282454566343e+03 
       1.134569530930e-02       2.290991313316e+03 
       1.147434860397e-02       2.298972787541e+03 
       1.160304035703e-02       2.306982668582e+03 
       1.173177019151e-02       2.314727622240e+03 
       1.186053776769e-02       2.322225550984e+03 
       1.198934278168e-02       2.329472075681e+03 
       1.211818496408e-02       2.336456240924e+03 
       1.224706407876e-02       2.343123264355e+03 
       1.237597992169e-02       2.349636884433e+03 
       1.250493231988e-02       2.355912766875e+03 
       1.263392113039e-02       2.361954896476e+03 
       1.276294623940e-02       2.367762723587e+03 
       1.289200756136e-02       2.373234738742e+03 
       1.302110503820e-02       2.378591218175e+03 
       1.315023863859e-02       2.383723699478e+03 
       1.327940835728e-02       2.388638043732e+03 
       1.340861421447e-02       2.393333876595e+03 
       1.353785625521e-02       2.397813872961e+03 
       1.366713454890e-02       2.402053872752e+03 
       1.379644918881e-02       2.406113804308e+03 
       1.392580029162e-02       2.409968679854e+03 
       1.405518799700e-02       2.413620030128e+03 
       1.418461246729e-02       2.417065121269e+03 
       1.431407388714e-02       2.420315794662e+03 
       1.444357246321e-02       2.423368699054e+03 
       1.457310842393e-02       2.426202424653e+03 
       1.470268201923e-02       2.428870786306e+03 
       1.477104874446e-02       2.430203719485e+03 
       1.483229352036e-02       2.431351250476e+03 
       1.496194321974e-02       2.433644140089e+03 
       1.509163143075e-02       2.435752852577e+03 
       1.522135848763e-02       2.437679742004e+03 
       1.535112474543e-02       2.439423843244e+03 
       1.548093057987e-02       2.440994393223e+03 
       1.561077638731e-02       2.442389115811e+03 
       1.574066258474e-02       2.443611645695e+03 
       1.587058960974e-02       2.444662466554e+03 
       1.600055792053e-02       2.445546444860e+03 
       1.613056799599e-02       2.446262759256e+03 
       1.626062033568e-02       2.446813970510e+03 
       1.639071545997e-02       2.447216188442e+03 
       1.652085391011e-02       2.447449177161e+03 
       1.665103624832e-02       2.447524199336e+03 
       1.678126305793e-02       2.447443969641e+03 
       1.691153494356e-02       2.447210238837e+03 
       1.704185253123e-02       2.446825332483e+03 
       1.717221646859e-02       2.446290935597e+03 
       1.730262742509e-02       2.445620344953e+03 
       1.743308609220e-02       2.444795899910e+03 
       1.756359318365e-02       2.443828116079e+03 
       1.769414943569e-02       2.442718882073e+03 
       1.782475560732e-02       2.441471136334e+03 
       1.795541248062e-02       2.440087623417e+03 
       1.808612086101e-02       2.438568117560e+03 
       1.821688157760e-02       2.436915796348e+03 
       1.834769548349e-02       2.435160982633e+03 
       1.847856345614e-02       2.433251702427e+03 
       1.860948639773e-02       2.431214774637e+03 
       1.874046523556e-02       2.429053571692e+03 
       1.887150092242e-02       2.426769988658e+03 
       1.900259443702e-02       2.424364449617e+03 
       1.913374678445e-02       2.421840504306e+03 
       1.926495899659e-02       2.419198951213e+03 
       1.939623213261e-02       2.416441601185e+03 
       1.952756727946e-02       2.413588286560e+03 
       1.965896555235e-02       2.410608023865e+03 
       1.979042809530e-02       2.407516711234e+03 
       1.992195608168e-02       2.404318707179e+03 
       2.005355071477e-02       2.401014141554e+03 
       2.018521322835e-02       2.397604508296e+03 
       2.031694488728e-02       2.394093368008e+03 
       2.044874698816e-02       2.390479483816e+03 
       2.058062085995e-02       2.386768834542e+03 
       2.071256786465e-02       2.382995509388e+03 
       2.084458939798e-02       2.379092058551e+03 
       2.097668689010e-02       2.375095333278e+03 
       2.110886180632e-02       2.371005763990e+03 
       2.124111564789e-02       2.366826029320e+03 
       2.137344995276e-02       2.362557496981e+03 
       2.150586629642e-02       2.358200359174e+03 
       2.163836629266e-02       2.353758688633e+03 
       2.177095159452e-02       2.349232943928e+03 
       2.190362389510e-02       2.344622655092e+03 
       2.203638492852e-02       2.339951672066e+03 
       2.216923647086e-02       2.335181865573e+03 
       2.230218034108e-02       2.330335238122e+03 
       2.243521840209e-02       2.325410328881e+03 
       2.256835256176e-02       2.320411661880e+03 
       2.270158477395e-02       2.315340800815e+03 
       2.283491703967e-02       2.310196202222e+03 
       2.296835140816e-02       2.304979034477e+03 
       2.310188997809e-02       2.299694045090e+03 
       2.323553489874e-02       2.294341455736e+03 
       2.336928837129e-02       2.288919879007e+03 
       2.350315265006e-02       2.283475039492e+03 
       2.363713004382e-02       2.277926976143e+03 
       2.377122291722e-02       2.272317461710e+03 
       2.390543369213e-02       2.266645685146e+03 
       2.403976484913e-02       2.260916031447e+03 
       2.417421892901e-02       2.255125762216e+03 
       2.430879853430e-02       2.249280249475e+03 
       2.444350633087e-02       2.243379528368e+03 
       2.457834504960e-02       2.237422372317e+03 
       2.471331748806e-02       2.231413478937e+03 
       2.484842651228e-02       2.225351714085e+03 
       2.498367505857e-02       2.219260041301e+03 
       2.511906613536e-02       2.213100339917e+03 
       2.525460282521e-02       2.206892229217e+03 
       2.539028828673e-02       2.200637033917e+03 
       2.552612575672e-02       2.194335642344e+03 
       2.566211855224e-02       2.187991018776e+03 
       2.579827007290e-02       2.181603218532e+03 
       2.593458380306e-02       2.175171799242e+03 
       2.607106331428e-02       2.168701875831e+03 
       2.620771226770e-02       2.162189971437e+03 
       2.634453441659e-02       2.155641345510e+03 
       2.648153360900e-02       2.149054346090e+03 
       2.661871379042e-02       2.142472746161e+03 
       2.675607900660e-02       2.135815521806e+03 
       2.689363340650e-02       2.129123872638e+03 
       2.703138124523e-02       2.122399926373e+03 
       2.716932688721e-02       2.115642073627e+03 
       2.730747480939e-02       2.108855041303e+03 
       2.744582960461e-02       2.102037298332e+03 
       2.758439598503e-02       2.095190013422e+03 
       2.772317878579e-02       2.088314165113e+03 
       2.786218296868e-02       2.081412426531e+03 
       2.800141362605e-02       2.074482872947e+03 
       2.814087598484e-02       2.067529328814e+03 
       2.828057541070e-02       2.060570266015e+03 
       2.842051741237e-02       2.053568528544e+03 
       2.856070764616e-02       2.046543988581e+03 
       2.870115192063e-02       2.039496991920e+03 
       2.884185620143e-02       2.032429755039e+03 
       2.898282661637e-02       2.025342472628e+03 
       2.912406946065e-02       2.018234447376e+03 
       2.926559120233e-02       2.011108556195e+03 
       2.940739848803e-02       2.003965525968e+03 
       2.954949814880e-02       1.996803646662e+03 
       2.969189720630e-02       1.989627635107e+03 
       2.983460287922e-02       1.982434561412e+03 
       2.997762258996e-02       1.975228372764e+03 
       3.012096397155e-02       1.968047424236e+03 
       3.026463487496e-02       1.960813913089e+03 
       3.040864337662e-02       1.953568930264e+03 
       3.055299778635e-02       1.946311977272e+03 
       3.069770665559e-02       1.939043056143e+03 
       3.084277878598e-02       1.931763504882e+03 
       3.098822323838e-02       1.924475718903e+03 
       3.113404934220e-02       1.917176622466e+03 
       3.128026670528e-02       1.909870267100e+03 
       3.142688522408e-02       1.902555839826e+03 
       3.157391509446e-02       1.895233261259e+03 
       3.172136682287e-02       1.887904769768e+03 
       3.186925123812e-02       1.880568319226e+03 
       3.201757950369e-02       1.873227943961e+03 
       3.216636313061e-02       1.865901571890e+03 
       3.231561399100e-02       1.858550294220e+03 
       3.246534433225e-02       1.851196391629e+03 
       3.261556679187e-02       1.843838357719e+03 
       3.276629441311e-02       1.836476613111e+03 
       3.291754066138e-02       1.829110998340e+03 
       3.306931944145e-02       1.821744631835e+03 
       3.322164511557e-02       1.814374471240e+03 
       3.337453252250e-02       1.807003827115e+03 
       3.352799699759e-02       1.799631375108e+03 
       3.368205439382e-02       1.792256852322e+03 
       3.383672110406e-02       1.784883858336e+03 
       3.399201408446e-02       1.777509357358e+03 
       3.414795087920e-02       1.770133845535e+03 
       3.430454964648e-02       1.762800514593e+03 
       3.446182918604e-02       1.755428750879e+03 
       3.461980896827e-02       1.748057288462e+03 
       3.477850916483e-02       1.740686370251e+03 
       3.493795068120e-02       1.733317569209e+03 
       3.509815519100e-02       1.725949577282e+03 
       3.525914517238e-02       1.718583724976e+03 
       3.542094394660e-02       1.711221021127e+03 
       3.558357571890e-02       1.703858814424e+03 
       3.574706562186e-02       1.696500813818e+03 
       3.591143976147e-02       1.689144179040e+03 
       3.607672526605e-02       1.681789572683e+03 
       3.624295033824e-02       1.674438539595e+03 
       3.641014431043e-02       1.667089834653e+03 
       3.657833770360e-02       1.659762860141e+03 
       3.674756229022e-02       1.652419760505e+03 
       3.691785116118e-02       1.645080685220e+03 
       3.708923879732e-02       1.637742513348e+03 
       3.726176114578e-02       1.630407790133e+03 
       3.743545570170e-02       1.623077006567e+03 
       3.761036159558e-02       1.615747113758e+03 
       3.778651968691e-02       1.608421052384e+03 
       3.796397266446e-02       1.601095793980e+03 
       3.814276515400e-02       1.593773325780e+03 
       3.832294383392e-02       1.586453665253e+03 
       3.850455755958e-02       1.579133818609e+03 
       3.868765749714e-02       1.571817425692e+03 
       3.887229726772e-02       1.564501530518e+03 
       3.905853310290e-02       1.557225438899e+03 
       3.924642401263e-02       1.549911509958e+03 
       3.943603196674e-02       1.542598958320e+03 
       3.962742209129e-02       1.535286009758e+03 
       3.982066288146e-02       1.527972787816e+03 
       4.001582643241e-02       1.520659105686e+03 
       4.021298869007e-02       1.513342766393e+03 
       4.041222972391e-02       1.506026108366e+03 
       4.061363402409e-02       1.498705805563e+03 
       4.081729082550e-02       1.491382512121e+03 
       4.102329446167e-02       1.484056246403e+03 
       4.123174475200e-02       1.476725874198e+03 
       4.144274742588e-02       1.469388761203e+03 
       4.165641458812e-02       1.462064957962e+03 
       4.187286523054e-02       1.454716540704e+03 
       4.209222579515e-02       1.447359134362e+03 
       4.231463079528e-02       1.439994706687e+03 
       4.254022350185e-02       1.432618756033e+03 
       4.276915670306e-02       1.425233793180e+03 
       4.300159354694e-02       1.417834668814e+03 
       4.323770847770e-02       1.410423098793e+03 
       4.347768827850e-02       1.402996544828e+03 
       4.372173323527e-02       1.395554197824e+03 
       4.397005843846e-02       1.388092030636e+03 
       4.422289524257e-02       1.380612565128e+03 
       4.448049290648e-02       1.373145053598e+03 
       4.474312044161e-02       1.365621149195e+03 
       4.501106869972e-02       1.358070536229e+03 
       4.528465273778e-02       1.350493751657e+03 
       4.556421450424e-02       1.342884772045e+03 
       4.585012589952e-02       1.335244589221e+03 
       4.614279227315e-02       1.327566919525e+03 
       4.644265643304e-02       1.319851844981e+03 
       4.675020325671e-02       1.312094304592e+03 
       4.706596501334e-02       1.304289066308e+03 
       4.739052752835e-02       1.296435495864e+03 
       4.772453735021e-02       1.288543221457e+03 
       4.806871011521e-02       1.280575304053e+03 
       4.842384034929e-02       1.272541553427e+03 
       4.879081300225e-02       1.264436706212e+03 
       4.917061707891e-02       1.256254413912e+03 
       4.956436182048e-02       1.247986953836e+03 
       4.997329600140e-02       1.239623639241e+03 
       5.039883104949e-02       1.231157054810e+03 
       5.084256887894e-02       1.222576444496e+03 
       5.130633555731e-02       1.213901950293e+03 
       5.179222222260e-02       1.205051152104e+03 
       5.230263503992e-02       1.196041520007e+03 
       5.284035645646e-02       1.186850435324e+03 
       5.340862059289e-02       1.177455640373e+03 
       5.401120630400e-02       1.167827287272e+03 
       5.465255223124e-02       1.157946586797e+03 
       5.533789897293e-02       1.147737261030e+03 
       5.607346410627e-02       1.137161307868e+03 
       5.686665573772e-02       1.126148491595e+03 
       5.772632855749e-02       1.114611244304e+03 
       5.866308109722e-02       1.102469651342e+03 
       5.968958042904e-02       1.089508000614e+03 
