# total [l(l+1)/2pi] C_l's (units: [microK]^2)
# for l=2 to 3100, i.e. number of multipoles equal to 3099
#
# -> if you don't want to see such a header, set 'headers' to 'no' in input file
# -> for CMB lensing (d), these are C_l^dd for the deflection field.
#    Remember the conversion factors:
#    C_l^dd (deflection) = l(l+1) C_l^phi-phi
#    C_l^gg (shear/convergence) = 1/4 (l(l+1))^2 C_l^phi-phi
#
# 1:l     2:TT                     3:EE                     4:BB                     5:TE                     6:dd                     7:dT                     8:dE                 
    2       1.365838409330e+03       3.094988199916e-02       0.000000000000e+00       2.634768823025e+00       3.657690048451e-08       3.854354466072e-03      -1.191552608053e-05 
    3       1.309714143801e+03       4.296689041796e-02       0.000000000000e+00       3.009026103832e+00       4.414501294995e-08       4.142153335593e-03      -1.332547744820e-05 
    4       1.240583514966e+03       4.067661987024e-02       0.000000000000e+00       2.899482983431e+00       5.072565642770e-08       4.277161328996e-03      -1.191615996748e-05 
    5       1.179822549054e+03       2.990706864265e-02       0.000000000000e+00       2.568839446672e+00       5.655900740631e-08       4.327693204175e-03      -8.817664830384e-06 
    6       1.129490281720e+03       1.823173490859e-02       0.000000000000e+00       2.167748260279e+00       6.174249770812e-08       4.327640523004e-03      -5.032182974762e-06 
    7       1.090168352245e+03       1.009938456830e-02       0.000000000000e+00       1.786933814530e+00       6.639994547347e-08       4.300652526384e-03      -1.409695483607e-06 
    8       1.059218681805e+03       6.068877417126e-03       0.000000000000e+00       1.469510272638e+00       7.060860963099e-08       4.259026586193e-03       1.439567742445e-06 
    9       1.035491454527e+03       4.599957408594e-03       0.000000000000e+00       1.230025235600e+00       7.442106018457e-08       4.206720738686e-03       3.187318103952e-06 
   10       1.020693923092e+03       4.023752128484e-03       0.000000000000e+00       1.065989341083e+00       7.788817336450e-08       4.147586279741e-03       3.785086685580e-06 
   11       1.010051510734e+03       3.501630634921e-03       0.000000000000e+00       9.685425573466e-01       7.947592051141e-08       4.092451732102e-03       3.429807820211e-06 
   12       9.983362389343e+02       2.958110990103e-03       0.000000000000e+00       9.262979410715e-01       8.230012229061e-08       4.014770611316e-03       2.432853867672e-06 
   13       9.895847864622e+02       2.593858677408e-03       0.000000000000e+00       9.256664734423e-01       8.489358591320e-08       3.940769560914e-03       1.211529277604e-06 
   14       9.879648077067e+02       2.514969695461e-03       0.000000000000e+00       9.572202905848e-01       8.726325932464e-08       3.870755501266e-03       1.070153886802e-07 
   15       9.885969853727e+02       2.657423445210e-03       0.000000000000e+00       1.010329647450e+00       8.940209638070e-08       3.797674251623e-03      -6.533449439248e-07 
   16       9.883919183000e+02       2.918421249701e-03       0.000000000000e+00       1.073639695981e+00       9.143000421609e-08       3.726134729409e-03      -9.660125472668e-07 
   17       9.902063310799e+02       3.266304556057e-03       0.000000000000e+00       1.142561907374e+00       9.326108088810e-08       3.649833982988e-03      -8.789423958247e-07 
   18       9.932328255558e+02       3.730095639191e-03       0.000000000000e+00       1.213849453887e+00       9.488981441983e-08       3.570812483986e-03      -5.165332694458e-07 
   19       9.971090949898e+02       4.342276987761e-03       0.000000000000e+00       1.285627869545e+00       9.646082247230e-08       3.496234303389e-03      -1.635102985637e-08 
   20       1.001709941838e+03       5.126073411912e-03       0.000000000000e+00       1.356300794239e+00       9.788069281281e-08       3.426491801075e-03       4.311874537155e-07 
   21       1.008059268887e+03       6.067476947092e-03       0.000000000000e+00       1.425763966511e+00       9.919664753548e-08       3.360208391859e-03       7.155426934178e-07 
   22       1.016892869229e+03       7.138356554026e-03       0.000000000000e+00       1.494176345959e+00       1.003644758866e-07       3.291234383286e-03       7.661284792185e-07 
   23       1.026473983203e+03       8.343092939533e-03       0.000000000000e+00       1.560455320360e+00       1.014435894110e-07       3.222679424785e-03       5.943185048110e-07 
   24       1.034434383547e+03       9.696017916061e-03       0.000000000000e+00       1.623509419648e+00       1.024279047585e-07       3.158559895141e-03       2.717783921014e-07 
   25       1.042332772388e+03       1.120654810198e-02       0.000000000000e+00       1.685231946604e+00       1.033537505704e-07       3.099445934452e-03      -1.075183909039e-07 
   26       1.052506331695e+03       1.288081395581e-02       0.000000000000e+00       1.747752605606e+00       1.041875331629e-07       3.042231766087e-03      -4.271996405941e-07 
   27       1.063938102575e+03       1.471850085027e-02       0.000000000000e+00       1.808045033159e+00       1.049436476914e-07       2.985147738173e-03      -6.307976550242e-07 
   28       1.074653505335e+03       1.671842759002e-02       0.000000000000e+00       1.861595556416e+00       1.055968668379e-07       2.925744540641e-03      -6.899686181610e-07 
   29       1.084966990099e+03       1.889174528962e-02       0.000000000000e+00       1.907398864143e+00       1.062003049502e-07       2.865685497256e-03      -6.217462442485e-07 
   30       1.095973246144e+03       2.125483512475e-02       0.000000000000e+00       1.945649533768e+00       1.067700026134e-07       2.807140362517e-03      -4.773178870220e-07 
   31       1.108612353296e+03       2.382361189046e-02       0.000000000000e+00       1.976515985263e+00       1.072505314001e-07       2.751177587937e-03      -3.249456228255e-07 
   32       1.122580700715e+03       2.660366959790e-02       0.000000000000e+00       1.999178354956e+00       1.076740701268e-07       2.698541879793e-03      -1.994712098689e-07 
   33       1.136972101038e+03       2.959630212565e-02       0.000000000000e+00       2.012421521453e+00       1.080597357620e-07       2.648690086723e-03      -1.302032513432e-07 
   34       1.150845783727e+03       3.280302425346e-02       0.000000000000e+00       2.015298320567e+00       1.083797889952e-07       2.600003336125e-03      -1.444218757562e-07 
   35       1.164329935817e+03       3.623295909421e-02       0.000000000000e+00       2.008609909572e+00       1.086574233657e-07       2.552633259955e-03      -2.326340304361e-07 
   36       1.177892006591e+03       3.989804722589e-02       0.000000000000e+00       1.993977026515e+00       1.088985526385e-07       2.506619468679e-03      -3.649772322113e-07 
   37       1.191952913901e+03       4.380962403231e-02       0.000000000000e+00       1.972864926654e+00       1.090760921488e-07       2.461427756585e-03      -5.044857888381e-07 
   38       1.206557861096e+03       4.797314415002e-02       0.000000000000e+00       1.944470744979e+00       1.092180252659e-07       2.417508903943e-03      -6.315740657479e-07 
   39       1.221589002707e+03       5.239167116630e-02       0.000000000000e+00       1.907131704517e+00       1.093497953727e-07       2.375211125818e-03      -7.291332718888e-07 
   40       1.236844117762e+03       5.706719978087e-02       0.000000000000e+00       1.858862663814e+00       1.094608194351e-07       2.334240505657e-03      -7.759070376260e-07 
   41       1.252115287088e+03       6.200147036741e-02       0.000000000000e+00       1.797816952637e+00       1.095157869541e-07       2.293911119722e-03      -7.540753227120e-07 
   42       1.267473470910e+03       6.719890085071e-02       0.000000000000e+00       1.723901692520e+00       1.095309721416e-07       2.254381552425e-03      -6.776807873509e-07 
   43       1.283064148307e+03       7.266449073055e-02       0.000000000000e+00       1.637651636545e+00       1.095249865284e-07       2.215788589670e-03      -5.770979891867e-07 
   44       1.299027817483e+03       7.840300907526e-02       0.000000000000e+00       1.539803104877e+00       1.094925535278e-07       2.177842179407e-03      -4.933299963235e-07 
   45       1.315472617261e+03       8.441891926838e-02       0.000000000000e+00       1.431087267658e+00       1.094134617436e-07       2.140047569763e-03      -4.677163979045e-07 
   46       1.332385900131e+03       9.071614892824e-02       0.000000000000e+00       1.311509416216e+00       1.093056064049e-07       2.102686708873e-03      -5.022772471683e-07 
   47       1.349693718807e+03       9.729823495577e-02       0.000000000000e+00       1.180873626806e+00       1.091898162152e-07       2.066136489521e-03      -5.840304868996e-07 
   48       1.367281550280e+03       1.041683702755e-01       0.000000000000e+00       1.038981054340e+00       1.090719854363e-07       2.030568798057e-03      -6.944890260438e-07 
   49       1.384991331677e+03       1.113293905001e-01       0.000000000000e+00       8.856287777758e-01       1.089385040499e-07       1.995911273272e-03      -8.090033238063e-07 
   50       1.402670547463e+03       1.187835515499e-01       0.000000000000e+00       7.205867162057e-01       1.087651449548e-07       1.961959119641e-03      -9.026944527475e-07 
   51       1.420342075773e+03       1.265318222876e-01       0.000000000000e+00       5.435236689289e-01       1.085624608137e-07       1.928865353539e-03      -9.728056651670e-07 
   52       1.438075321245e+03       1.345743768264e-01       0.000000000000e+00       3.540592039830e-01       1.083455529605e-07       1.896775718864e-03      -1.024145286571e-06 
   53       1.455937690639e+03       1.429107641700e-01       0.000000000000e+00       1.517816981351e-01       1.081197458183e-07       1.865667922307e-03      -1.063422381744e-06 
   54       1.473994078165e+03       1.515398850404e-01       0.000000000000e+00      -6.375384969230e-02       1.078778777930e-07       1.835325293718e-03      -1.099454130040e-06 
   55       1.492299800977e+03       1.604604048530e-01       0.000000000000e+00      -2.929534581087e-01       1.076065507212e-07       1.805455785799e-03      -1.141165149658e-06 
   56       1.510878529545e+03       1.696721658686e-01       0.000000000000e+00      -5.359410228022e-01       1.073160237571e-07       1.776167418056e-03      -1.190186603359e-06 
   57       1.529737973233e+03       1.791750852617e-01       0.000000000000e+00      -7.927448856405e-01       1.070195490980e-07       1.747619324075e-03      -1.245910858238e-06 
   58       1.548875196692e+03       1.889687436618e-01       0.000000000000e+00      -1.063366387337e+00       1.067238667580e-07       1.719876953941e-03      -1.307448726263e-06 
   59       1.568275850002e+03       1.990523789734e-01       0.000000000000e+00      -1.347779149602e+00       1.064275190125e-07       1.692897950943e-03      -1.373600407318e-06 
   60       1.587913398821e+03       2.094248801964e-01       0.000000000000e+00      -1.645928357290e+00       1.061190103562e-07       1.666517415527e-03      -1.442825356458e-06 
   61       1.607759974362e+03       2.200844052313e-01       0.000000000000e+00      -1.957718736403e+00       1.057829394744e-07       1.640532662340e-03      -1.513435182538e-06 
   62       1.627823510899e+03       2.310271480284e-01       0.000000000000e+00      -2.282976958763e+00       1.054265655749e-07       1.615027283207e-03      -1.584322577462e-06 
   63       1.648117615986e+03       2.422482824866e-01       0.000000000000e+00      -2.621479486425e+00       1.050613841219e-07       1.590128100420e-03      -1.654420951840e-06 
   64       1.668650292970e+03       2.537422962962e-01       0.000000000000e+00      -2.972962075978e+00       1.046951410483e-07       1.565907165799e-03      -1.722489080865e-06 
   65       1.689423539827e+03       2.655029728289e-01       0.000000000000e+00      -3.337118702027e+00       1.043308948174e-07       1.542374109870e-03      -1.787098313135e-06 
   66       1.710432947987e+03       2.775233730265e-01       0.000000000000e+00      -3.713600480663e+00       1.039659992905e-07       1.519468188171e-03      -1.846619397458e-06 
   67       1.731667301176e+03       2.897958172908e-01       0.000000000000e+00      -4.102014592951e+00       1.035910048735e-07       1.497050024721e-03      -1.899208927625e-06 
   68       1.753114885588e+03       3.023123522566e-01       0.000000000000e+00      -4.502001250164e+00       1.031943856726e-07       1.474963139867e-03      -1.943174014586e-06 
   69       1.774784801923e+03       3.150663014239e-01       0.000000000000e+00      -4.913485105319e+00       1.027818225894e-07       1.453260267460e-03      -1.978228400095e-06 
   70       1.796689270900e+03       3.280509976337e-01       0.000000000000e+00      -5.336473084392e+00       1.023624723633e-07       1.432029989236e-03      -2.004590748638e-06 
   71       1.818837078583e+03       3.412593203764e-01       0.000000000000e+00      -5.770981754875e+00       1.019432277055e-07       1.411328676154e-03      -2.022653058672e-06 
   72       1.841233346863e+03       3.546836900828e-01       0.000000000000e+00      -6.217038245208e+00       1.015281875868e-07       1.391176409291e-03      -2.032995943724e-06 
   73       1.863879303933e+03       3.683160624140e-01       0.000000000000e+00      -6.674681164211e+00       1.011180868832e-07       1.371552754897e-03      -2.036404379633e-06 
   74       1.886772054768e+03       3.821479225523e-01       0.000000000000e+00      -7.143961520515e+00       1.007096842040e-07       1.352392393604e-03      -2.033883917953e-06 
   75       1.909904351603e+03       3.961702794914e-01       0.000000000000e+00      -7.624943641991e+00       1.002951067267e-07       1.333580603797e-03      -2.026677365507e-06 
   76       1.933268227753e+03       4.103736824370e-01       0.000000000000e+00      -8.117630078029e+00       9.986537250115e-08       1.314997170119e-03      -2.016091994736e-06 
   77       1.956867171462e+03       4.247482860824e-01       0.000000000000e+00      -8.621718463897e+00       9.942411160546e-08       1.296672726751e-03      -2.002886977023e-06 
   78       1.980705765333e+03       4.392837869189e-01       0.000000000000e+00      -9.136801783853e+00       9.897750154664e-08       1.278666470199e-03      -1.987750288136e-06 
   79       2.004785872057e+03       4.539693970096e-01       0.000000000000e+00      -9.662439825976e+00       9.853017818507e-08       1.261019265387e-03      -1.971480686252e-06 
   80       2.029106484110e+03       4.687938387339e-01       0.000000000000e+00      -1.019815854280e+01       9.808492299132e-08       1.243751544075e-03      -1.954994426722e-06 
   81       2.053663573455e+03       4.837453395310e-01       0.000000000000e+00      -1.074344941197e+01       9.764232892708e-08       1.226861135562e-03      -1.939332137525e-06 
   82       2.078449941236e+03       4.988116266440e-01       0.000000000000e+00      -1.129776879683e+01       9.720044439645e-08       1.210321029656e-03      -1.925665855380e-06 
   83       2.103455067481e+03       5.139799218634e-01       0.000000000000e+00      -1.186053730712e+01       9.675439471344e-08       1.194077071932e-03      -1.915306222540e-06 
   84       2.128669513927e+03       5.292372477535e-01       0.000000000000e+00      -1.243119657653e+01       9.629875306777e-08       1.178072056766e-03      -1.909407352004e-06 
   85       2.154099300350e+03       5.445714161741e-01       0.000000000000e+00      -1.300939181069e+01       9.583650174892e-08       1.162330290090e-03      -1.907979930094e-06 
   86       2.179753647038e+03       5.599701947599e-01       0.000000000000e+00      -1.359481847024e+01       9.537226440652e-08       1.146889603742e-03      -1.910647284573e-06 
   87       2.205640560875e+03       5.754210099874e-01       0.000000000000e+00      -1.418716786543e+01       9.490960582658e-08       1.131775515455e-03      -1.916919128309e-06 
   88       2.231766761563e+03       5.909109471538e-01       0.000000000000e+00      -1.478612748169e+01       9.445083929270e-08       1.116999983078e-03      -1.926183585468e-06 
   89       2.258137607845e+03       6.064267503557e-01       0.000000000000e+00      -1.539138130532e+01       9.399682204070e-08       1.102560122661e-03      -1.937699017391e-06 
   90       2.284757023728e+03       6.219548224682e-01       0.000000000000e+00      -1.600261014907e+01       9.354673852664e-08       1.088436890392e-03      -1.950585648142e-06 
   91       2.311627424701e+03       6.374812251235e-01       0.000000000000e+00      -1.661949197779e+01       9.309787122875e-08       1.074593728396e-03      -1.963816989746e-06 
   92       2.338749643962e+03       6.529916786899e-01       0.000000000000e+00      -1.724170223408e+01       9.264535870296e-08       1.060975174405e-03      -1.976211067096e-06 
   93       2.366123328271e+03       6.684717909241e-01       0.000000000000e+00      -1.786889209248e+01       9.218422433336e-08       1.047527178735e-03      -1.986681276004e-06 
   94       2.393748353876e+03       6.839077823131e-01       0.000000000000e+00      -1.850061877372e+01       9.171675346416e-08       1.034266513337e-03      -1.995074120845e-06 
   95       2.421623488124e+03       6.992858702926e-01       0.000000000000e+00      -1.913640530304e+01       9.124683676920e-08       1.021224322135e-03      -2.001503177530e-06 
   96       2.449745872376e+03       7.145920533689e-01       0.000000000000e+00      -1.977576167008e+01       9.077777626008e-08       1.008425122943e-03      -2.006106932943e-06 
   97       2.478110954674e+03       7.298121142374e-01       0.000000000000e+00      -2.041818485153e+01       9.031217990831e-08       9.958861701588e-04      -2.009050166241e-06 
   98       2.506712422408e+03       7.449316228999e-01       0.000000000000e+00      -2.106315883377e+01       8.985185025475e-08       9.836168004641e-04      -2.010525358718e-06 
   99       2.535542134987e+03       7.599359397829e-01       0.000000000000e+00      -2.171015463558e+01       8.939766687715e-08       9.716177615433e-04      -2.010754132226e-06 
  100       2.564590056505e+03       7.748102188547e-01       0.000000000000e+00      -2.235863033075e+01       8.894946258643e-08       9.598805238131e-04      -2.009988716164e-06 
  101       2.593844188414e+03       7.895394107437e-01       0.000000000000e+00      -2.300803107074e+01       8.850589322252e-08       9.483865751673e-04      -2.008513443022e-06 
  102       2.623290502187e+03       8.041082658561e-01       0.000000000000e+00      -2.365778910737e+01       8.806430092058e-08       9.371066987344e-04      -2.006646272494e-06 
  103       2.652912871990e+03       8.185013374936e-01       0.000000000000e+00      -2.430732381544e+01       8.762057071822e-08       9.260002336494e-04      -2.004740344142e-06 
  104       2.682696668253e+03       8.327033830188e-01       0.000000000000e+00      -2.495605961853e+01       8.717067443870e-08       9.150286962368e-04      -2.003113516080e-06 
  105       2.712640236250e+03       8.467006223540e-01       0.000000000000e+00      -2.560348247526e+01       8.671612204765e-08       9.042014727655e-04      -2.001817142231e-06 
  106       2.742744849800e+03       8.604796560907e-01       0.000000000000e+00      -2.624909110123e+01       8.625968750651e-08       8.935379464844e-04      -2.000823525792e-06 
  107       2.773011162059e+03       8.740270900257e-01       0.000000000000e+00      -2.689237996408e+01       8.580378542156e-08       8.830536059246e-04      -2.000093150353e-06 
