# Matter power spectrum P(k) at redshift z=0
# for k=1.04825e-05 to 1.4771 h/Mpc,
# number of wavenumbers equal to 615
#    1:k (h/Mpc)              2:P (Mpc/h)^3        
       1.048254664621e-05       4.741011380209e+01 
       2.338179984878e-05       1.030149791675e+02 
       3.632659207851e-05       1.577544474151e+02 
       4.935185182018e-05       2.121761375801e+02 
       6.249308732615e-05       2.665976630279e+02 
       7.578670413046e-05       3.212612480664e+02 
       8.927033274875e-05       3.763916642727e+02 
       1.029831709337e-04       4.321746914155e+02 
       1.169663448892e-04       4.887787863545e+02 
       1.312632938796e-04       5.464097501745e+02 
       1.459201826764e-04       6.052616088627e+02 
       1.609863462238e-04       6.655356249795e+02 
       1.765147707196e-04       7.274430050684e+02 
       1.925626149317e-04       7.911572747994e+02 
       2.091917748988e-04       8.569565805929e+02 
       2.264694940621e-04       9.251610279494e+02 
       2.444690191782e-04       9.960317514431e+02 
       2.632702998395e-04       1.069789033872e+03 
       2.829607258069e-04       1.146793091519e+03 
       3.036358912995e-04       1.227390402186e+03 
       3.254003685065e-04       1.311965189025e+03 
       3.483684634740e-04       1.400973746998e+03 
       3.726649157973e-04       1.494861978671e+03 
       3.984254889608e-04       1.593912369937e+03 
       4.257973807509e-04       1.698823092848e+03 
       4.549393634795e-04       1.810058502377e+03 
       4.860215432119e-04       1.928226997852e+03 
       5.192246084185e-04       2.054277861281e+03 
       5.547384257095e-04       2.188097504953e+03 
       5.927598395669e-04       2.330755857636e+03 
       6.334895518072e-04       2.482953433312e+03 
       6.771280029241e-04       2.645006028936e+03 
       7.238702578713e-04       2.817856239570e+03 
       7.739000147550e-04       3.001380388203e+03 
       8.273829990716e-04       3.196700595987e+03 
       8.844601595396e-04       3.403605865239e+03 
       9.452412134932e-04       3.622527249463e+03 
       1.009799162769e-03       3.853134071979e+03 
       1.078166381479e-03       4.095420849255e+03 
       1.150332748807e-03       4.348802948775e+03 
       1.226246074705e-03       4.613247992540e+03 
       1.305814785275e-03       4.887826021816e+03 
       1.388912557478e-03       5.171610239986e+03 
       1.475384379231e-03       5.463917423775e+03 
       1.477104874446e-03       5.469709592020e+03 
       1.565053400271e-03       5.763562188604e+03 
       1.657727940697e-03       6.069939700218e+03 
       1.753208117917e-03       6.381713638043e+03 
       1.851291701885e-03       6.697969851806e+03 
       1.951778973167e-03       7.017890414290e+03 
       2.054476506821e-03       7.340567278049e+03 
       2.159199919234e-03       7.665252416178e+03 
       2.265775689443e-03       7.991055394971e+03 
       2.374042204622e-03       8.317333356308e+03 
       2.483850189724e-03       8.643543419472e+03 
       2.595062672882e-03       8.969076284582e+03 
       2.707554619386e-03       9.280808673697e+03 
       2.821212343976e-03       9.572670067483e+03 
       2.935932787938e-03       9.907863209050e+03 
       3.051622726387e-03       1.019411178843e+04 
       3.168197953199e-03       1.057228664873e+04 
       3.285582476624e-03       1.086375623648e+04 
       3.403707747366e-03       1.128035896427e+04 
       3.522511932538e-03       1.147259344303e+04 
       3.641939242739e-03       1.178213343160e+04 
       3.761939315212e-03       1.218605478402e+04 
       3.882466653097e-03       1.239612530568e+04 
       4.003480118864e-03       1.270497169138e+04 
       4.124942478875e-03       1.292207365630e+04 
       4.246819995353e-03       1.330475999668e+04 
       4.369082061775e-03       1.353086920761e+04 
       4.491700877664e-03       1.382116337313e+04 
       4.614651158877e-03       1.404624970633e+04 
       4.737909879710e-03       1.439494058898e+04 
       4.861456043403e-03       1.462083973942e+04 
       4.985270477916e-03       1.489955686336e+04 
       5.109335654154e-03       1.512073401479e+04 
       5.233635524105e-03       1.543585876888e+04 
       5.358155376596e-03       1.565530092759e+04 
       5.482881708679e-03       1.591433241577e+04 
       5.607802110830e-03       1.612930899337e+04 
       5.732905164382e-03       1.634617216241e+04 
       5.858180349800e-03       1.662108741304e+04 
       5.983617964546e-03       1.683089010046e+04 
       6.109209049462e-03       1.706476144356e+04 
       6.234945322695e-03       1.726857067488e+04 
       6.360819120333e-03       1.747092583726e+04 
       6.486823342994e-03       1.771304500791e+04 
       6.612951407714e-03       1.790918493747e+04 
       6.739197204563e-03       1.810078521974e+04 
       6.865555057466e-03       1.830874637770e+04 
       6.992019688779e-03       1.849510015627e+04 
       7.118586187227e-03       1.867987917243e+04 
       7.245249978844e-03       1.888644649823e+04 
       7.372006800609e-03       1.906467302999e+04 
       7.498852676487e-03       1.923785345252e+04 
       7.625783895646e-03       1.940909573917e+04 
       7.752796992618e-03       1.958745841635e+04 
       7.879888729216e-03       1.975214507478e+04 
       8.007056078031e-03       1.991340229476e+04 
       8.134296207359e-03       2.008829664721e+04 
       8.261606467407e-03       2.024308944608e+04 
       8.388984377678e-03       2.039449233361e+04 
       8.516427615397e-03       2.054324629425e+04 
       8.643934004909e-03       2.069457704450e+04 
       8.771501507930e-03       2.083689473226e+04 
       8.899128214596e-03       2.097556824246e+04 
       9.026812335230e-03       2.111180578606e+04 
       9.154552192757e-03       2.125494770496e+04 
       9.282346215719e-03       2.138501478551e+04 
       9.410192931830e-03       2.151110535446e+04 
       9.538090962033e-03       2.163470591404e+04 
       9.666039015006e-03       2.175979107154e+04 
       9.794035882085e-03       2.187722162959e+04 
       9.922080432571e-03       2.199191713475e+04 
       1.005017160938e-02       2.210389972073e+04 
       1.017830842503e-02       2.221973578266e+04 
       1.030648995789e-02       2.232580482255e+04 
       1.043471534875e-02       2.242905788683e+04 
       1.056298379758e-02       2.252943703211e+04 
       1.069129456059e-02       2.262693477541e+04 
       1.081964694742e-02       2.272480369676e+04 
       1.094804031862e-02       2.281701402881e+04 
       1.107647408324e-02       2.290651642548e+04 
       1.120494769659e-02       2.299345775794e+04 
       1.133346065822e-02       2.307760289657e+04 
       1.146201250998e-02       2.316389248331e+04 
       1.159060283423e-02       2.324296467115e+04 
       1.171923125219e-02       2.331969421362e+04 
       1.184789742240e-02       2.339371105545e+04 
       1.197660103927e-02       2.346524207716e+04 
       1.210534183176e-02       2.353648614521e+04 
       1.223411956214e-02       2.360318568062e+04 
       1.236293402481e-02       2.366750250322e+04 
       1.249178504526e-02       2.372939426441e+04 
       1.262067247906e-02       2.378895366950e+04 
       1.274959621093e-02       2.384622139677e+04 
       1.287855615389e-02       2.390443290763e+04 
       1.300755224847e-02       2.395724903749e+04 
       1.313658446197e-02       2.400781918570e+04 
       1.326565278778e-02       2.405610083088e+04 
       1.339475724477e-02       2.410225894043e+04 
       1.352389787666e-02       2.414628134021e+04 
       1.365307475159e-02       2.418958737335e+04 
       1.378228796151e-02       2.422939907226e+04 
       1.391153762183e-02       2.426707784647e+04 
       1.404082387100e-02       2.430268112699e+04 
       1.417014687008e-02       2.433637723968e+04 
       1.429950680249e-02       2.436792762660e+04 
       1.442890387366e-02       2.439759445099e+04 
       1.455833831078e-02       2.442759199444e+04 
       1.468781036258e-02       2.445347233018e+04 
       1.477104874446e-02       2.446903905044e+04 
       1.481732029910e-02       2.447739698367e+04 
       1.494686841151e-02       2.449945900266e+04 
       1.507645501199e-02       2.451967684531e+04 
       1.520608043359e-02       2.453796512143e+04 
       1.533574503012e-02       2.455547353157e+04 
       1.546544917607e-02       2.457025142891e+04 
       1.559519326660e-02       2.458329714041e+04 
       1.572497771746e-02       2.459457177026e+04 
       1.585480296501e-02       2.460417390462e+04 
       1.598466946622e-02       2.461197234723e+04 
       1.611457769873e-02       2.461814338451e+04 
       1.624452816084e-02       2.462270697324e+04 
       1.637452137167e-02       2.462734608540e+04 
       1.650455787117e-02       2.462862763468e+04 
       1.663463822029e-02       2.462841976027e+04 
       1.676476300106e-02       2.462656086762e+04 
       1.689493281679e-02       2.462322957886e+04 
       1.702514829217e-02       2.461837011252e+04 
       1.715541007351e-02       2.461191950648e+04 
       1.728571882891e-02       2.460480904407e+04 
       1.741607524846e-02       2.459551188267e+04 
       1.754648004451e-02       2.458479157221e+04 
       1.767693395188e-02       2.457257315991e+04 
       1.780743772817e-02       2.455899505865e+04 
       1.793799215400e-02       2.454408766399e+04 
       1.806859803331e-02       2.452776138796e+04 
       1.819925619373e-02       2.451009320073e+04 
       1.832996748684e-02       2.449250450660e+04 
       1.846073278856e-02       2.447229780878e+04 
       1.859155299953e-02       2.445075610011e+04 
       1.872242904542e-02       2.442798557742e+04 
       1.885336187744e-02       2.440399690033e+04 
       1.898435247265e-02       2.437878074406e+04 
       1.911540183445e-02       2.435238563960e+04 
       1.924651099304e-02       2.432478057141e+04 
       1.937768100586e-02       2.429597950685e+04 
       1.950891295808e-02       2.426670854983e+04 
       1.964020796312e-02       2.423571230528e+04 
       1.977156716318e-02       2.420353097948e+04 
       1.990299172976e-02       2.417032964275e+04 
       2.003448286424e-02       2.413604769665e+04 
       2.016604179845e-02       2.410065567639e+04 
       2.029766979531e-02       2.406431620025e+04 
       2.042936814937e-02       2.402685599071e+04 
       2.056113818757e-02       2.398848046030e+04 
       2.069298126979e-02       2.395024556700e+04 
       2.082489878961e-02       2.390989103023e+04 
       2.095689217502e-02       2.386862403219e+04 
       2.108896288909e-02       2.382639689655e+04 
       2.122111243081e-02       2.378327498181e+04 
       2.135334233581e-02       2.373927475040e+04 
       2.148565417718e-02       2.369433020987e+04 
       2.161804956632e-02       2.364858118671e+04 
       2.175053015376e-02       2.360198353360e+04 
       2.188309763011e-02       2.355448382896e+04 
       2.201575372688e-02       2.350677300493e+04 
       2.214850021750e-02       2.345767595371e+04 
       2.228133891825e-02       2.340785342240e+04 
       2.241427168928e-02       2.335720174013e+04 
       2.254730043562e-02       2.330583851380e+04 
       2.268042710825e-02       2.325368809054e+04 
       2.281365370523e-02       2.320086552641e+04 
       2.294698227277e-02       2.314726895394e+04 
       2.308041490646e-02       2.309302783986e+04 
       2.321395375242e-02       2.303811537914e+04 
       2.334760100859e-02       2.298246255190e+04 
       2.348135892596e-02       2.292725094901e+04 
       2.361522980994e-02       2.287033816392e+04 
       2.374921602170e-02       2.281284825412e+04 
       2.388331997955e-02       2.275470304162e+04 
       2.401754416044e-02       2.269601662384e+04 
       2.415189110142e-02       2.263668898168e+04 
       2.428636340122e-02       2.257683766728e+04 
       2.442096372180e-02       2.251642685743e+04 
       2.455569479003e-02       2.245541768620e+04 
       2.469055939937e-02       2.239392396227e+04 
       2.482556041166e-02       2.233187580479e+04 
       2.496070075888e-02       2.226982547553e+04 
       2.509598344506e-02       2.220680145463e+04 
       2.523141154822e-02       2.214331369508e+04 
       2.536698822234e-02       2.207933521877e+04 
       2.550271669944e-02       2.201491106345e+04 
       2.563860029172e-02       2.195005065898e+04 
       2.577464239375e-02       2.188478266808e+04 
       2.591084648478e-02       2.181902968665e+04 
       2.604721613108e-02       2.175293449275e+04 
       2.618375498839e-02       2.168637549676e+04 
       2.632046680443e-02       2.161946806637e+04 
       2.645735542154e-02       2.155217230652e+04 
       2.659442477936e-02       2.148544406495e+04 
       2.673167891765e-02       2.141745151006e+04 
       2.686912197919e-02       2.134911762607e+04 
       2.700675821274e-02       2.128047236971e+04 
       2.714459197624e-02       2.121146050997e+04 
       2.728262773995e-02       2.114219870251e+04 
       2.742087008982e-02       2.107261522987e+04 
       2.755932373097e-02       2.100272093599e+04 
       2.769799349127e-02       2.093254649866e+04 
       2.783688432506e-02       2.086212977585e+04 
       2.797600131702e-02       2.079141664969e+04 
       2.811534968619e-02       2.072049008152e+04 
       2.825493479011e-02       2.064969503322e+04 
       2.839476212919e-02       2.057829575594e+04 
       2.853483735114e-02       2.050664043556e+04 
       2.867516625567e-02       2.043476572708e+04 
       2.881575479935e-02       2.036270914883e+04 
       2.895660910061e-02       2.029046078383e+04 
       2.909773544501e-02       2.021797892435e+04 
       2.923914029069e-02       2.014534481149e+04 
       2.938083027402e-02       2.007254117969e+04 
       2.952281221550e-02       1.999952039201e+04 
       2.966509312595e-02       1.992640861760e+04 
       2.980768021285e-02       1.985309056715e+04 
       2.995058088703e-02       1.977968016570e+04 
       3.009380276963e-02       1.970691196337e+04 
       3.023735369933e-02       1.963321740149e+04 
       3.038124173990e-02       1.955942319367e+04 
       3.052547518807e-02       1.948551349665e+04 
       3.067006258177e-02       1.941147331893e+04 
       3.081501270871e-02       1.933733502081e+04 
       3.096033461535e-02       1.926312558666e+04 
       3.110603761624e-02       1.918878763194e+04 
       3.125213130384e-02       1.911441277939e+04 
       3.139862555874e-02       1.903993649391e+04 
       3.154553056036e-02       1.896538836315e+04 
       3.169285679818e-02       1.889078968367e+04 
       3.184061508344e-02       1.881609840958e+04 
       3.198881656145e-02       1.874139227853e+04 
       3.213747272441e-02       1.866699956969e+04 
       3.228659542499e-02       1.859217223266e+04 
       3.243619689037e-02       1.851734570290e+04 
       3.258628973716e-02       1.844246819768e+04 
       3.273688698697e-02       1.836755609928e+04 
       3.288800208273e-02       1.829259970835e+04 
       3.303964890593e-02       1.821765795469e+04 
       3.319184179463e-02       1.814266172106e+04 
       3.334459556255e-02       1.806766841045e+04 
       3.349792551896e-02       1.799266557815e+04 
       3.365184748981e-02       1.791762457682e+04 
       3.380637783987e-02       1.784264254624e+04 
       3.396153349609e-02       1.776762022941e+04 
       3.411733197227e-02       1.769261302923e+04 
       3.427379139502e-02       1.761836234668e+04 
       3.443093053121e-02       1.754340182363e+04 
       3.458876881698e-02       1.746843635312e+04 
       3.474732638834e-02       1.739348616107e+04 
       3.490662411360e-02       1.731857843212e+04 
       3.506668362764e-02       1.724365332524e+04 
       3.522752736820e-02       1.716876644437e+04 
       3.538917861438e-02       1.709391851709e+04 
       3.555166152736e-02       1.701906567170e+04 
       3.571500119373e-02       1.694429371548e+04 
       3.587922367139e-02       1.686949596896e+04 
       3.604435603838e-02       1.679473963636e+04 
       3.621042644474e-02       1.672002385436e+04 
       3.637746416773e-02       1.664532913661e+04 
       3.654549967067e-02       1.657100589545e+04 
       3.671456466552e-02       1.649633881182e+04 
       3.688469217972e-02       1.642175837945e+04 
       3.705591662752e-02       1.634718033673e+04 
       3.722827388614e-02       1.627267150872e+04 
       3.740180137722e-02       1.619816724361e+04 
       3.757653815400e-02       1.612365197324e+04 
       3.775252499460e-02       1.604921704894e+04 
       3.792980450216e-02       1.597477089257e+04 
       3.810842121216e-02       1.590037030434e+04 
       3.828842170778e-02       1.582599961152e+04 
       3.846985474388e-02       1.575161293035e+04 
       3.865277138042e-02       1.567729008547e+04 
       3.883722512625e-02       1.560296035234e+04 
       3.902327209415e-02       1.552930228107e+04 
       3.921097116823e-02       1.545498892519e+04 
       3.940038418488e-02       1.538070639094e+04 
       3.959157612861e-02       1.530640928986e+04 
       3.978461534421e-02       1.523211655346e+04 
       3.997957376694e-02       1.515781838995e+04 
       4.017652717251e-02       1.508348254984e+04 
       4.037555544907e-02       1.500916203230e+04 
       4.057674289332e-02       1.493478978255e+04 
       4.078017853354e-02       1.486039136964e+04 
       4.098595648238e-02       1.478596631697e+04 
       4.119417632274e-02       1.471150224088e+04 
       4.140494353052e-02       1.463694683763e+04 
       4.161836993847e-02       1.456265575142e+04 
       4.183457424601e-02       1.448800428697e+04 
       4.205368258042e-02       1.441327446160e+04 
       4.227582911578e-02       1.433845848611e+04 
       4.250115675682e-02       1.426351829348e+04 
       4.272981789577e-02       1.418849003190e+04 
       4.296197525185e-02       1.411327665108e+04 
       4.319780280406e-02       1.403797798965e+04 
       4.343748683001e-02       1.396251422989e+04 
       4.368122706517e-02       1.388688968916e+04 
       4.392923799954e-02       1.381108173389e+04 
       4.418175033131e-02       1.373504995566e+04 
       4.443901260048e-02       1.365937645293e+04 
       4.470129302936e-02       1.358291315122e+04 
       4.496888160158e-02       1.350615960168e+04 
       4.524209241673e-02       1.342914522975e+04 
       4.552126636492e-02       1.335178384797e+04 
       4.580677417353e-02       1.327411264917e+04 
       4.609901988850e-02       1.319603666885e+04 
       4.639844486491e-02       1.311758588912e+04 
       4.670553235641e-02       1.303869322826e+04 
       4.702081281151e-02       1.295929317758e+04 
       4.734487000769e-02       1.287940368700e+04 
       4.767834818211e-02       1.279919310905e+04 
       4.802196035314e-02       1.271811318780e+04 
       4.837649807070e-02       1.263634584307e+04 
       4.874284288813e-02       1.255383466944e+04 
       4.912197991835e-02       1.247052711822e+04 
       4.951501392394e-02       1.238633325514e+04 
       4.992318850272e-02       1.230112886036e+04 
       5.034790907146e-02       1.221486382702e+04 
       5.079077053096e-02       1.212740811317e+04 
       5.125359072545e-02       1.203915384522e+04 
       5.173845110201e-02       1.194888608164e+04 
       5.224774634636e-02       1.185697966060e+04 
       5.278424523754e-02       1.176318344568e+04 
       5.335116553932e-02       1.166727488871e+04 
       5.395226643761e-02       1.156894408498e+04 
       5.459196282017e-02       1.146808325421e+04 
       5.527546649907e-02       1.136373552192e+04 
       5.600896009461e-02       1.125558802755e+04 
       5.679980927073e-02       1.114294441854e+04 
       5.765681737904e-02       1.102492674364e+04 
       5.859052143588e-02       1.090082603552e+04 
       5.961351617832e-02       1.076820316679e+04 
