# total [l(l+1)/2pi] C_l's (units: [microK]^2)
# for l=2 to 3100, i.e. number of multipoles equal to 3099
#
# -> if you don't want to see such a header, set 'headers' to 'no' in input file
# -> for CMB lensing (d), these are C_l^dd for the deflection field.
#    Remember the conversion factors:
#    C_l^dd (deflection) = l(l+1) C_l^phi-phi
#    C_l^gg (shear/convergence) = 1/4 (l(l+1))^2 C_l^phi-phi
#
# 1:l     2:TT                     3:EE                     4:BB                     5:TE                     6:dd                     7:dT                     8:dE                 
    2       1.034489065632e+03       3.315176539317e-02       0.000000000000e+00       2.716070180397e+00       4.841378443327e-08       3.045828352430e-03      -1.271701182899e-05 
    3       9.776185674094e+02       4.442368641824e-02       0.000000000000e+00       3.095735152570e+00       5.944098091565e-08       3.066392992264e-03      -1.399486151567e-05 
    4       9.240174244695e+02       4.032145172903e-02       0.000000000000e+00       2.937404002391e+00       6.881356137386e-08       3.005537255587e-03      -1.227167683384e-05 
    5       8.835123150996e+02       2.828654841091e-02       0.000000000000e+00       2.536896932764e+00       7.691457862894e-08       2.914791149175e-03      -8.857389967067e-06 
    6       8.558171748675e+02       1.647138476644e-02       0.000000000000e+00       2.067932934003e+00       8.396535599400e-08       2.814130670059e-03      -4.880942612173e-06 
    7       8.382617744735e+02       8.903675729906e-03       0.000000000000e+00       1.637209548789e+00       9.016416679292e-08       2.713175147560e-03      -1.266444899500e-06 
    8       8.271879981714e+02       5.458030432021e-03       0.000000000000e+00       1.293577127569e+00       9.563408736290e-08       2.615357365229e-03       1.372005020530e-06 
    9       8.215608229963e+02       4.247061512374e-03       0.000000000000e+00       1.052107892907e+00       1.004765798939e-07       2.522622764331e-03       2.764034882304e-06 
   10       8.209717147065e+02       3.674184871155e-03       0.000000000000e+00       9.082328537537e-01       1.047911780847e-07       2.436229920439e-03       2.957137160227e-06 
   11       8.231838538907e+02       3.130286635752e-03       0.000000000000e+00       8.448919347475e-01       1.066245702079e-07       2.364881149123e-03       2.251725070818e-06 
   12       8.269643998387e+02       2.668335871437e-03       0.000000000000e+00       8.389061831317e-01       1.100286028793e-07       2.281207396958e-03       1.053299599492e-06 
   13       8.330638005453e+02       2.451513372471e-03       0.000000000000e+00       8.700347540239e-01       1.130544564418e-07       2.205604060946e-03      -1.933143914415e-07 
   14       8.409281011964e+02       2.480704393316e-03       0.000000000000e+00       9.233569788859e-01       1.157412771940e-07       2.136980006407e-03      -1.164150240639e-06 
   15       8.497007810147e+02       2.646823249216e-03       0.000000000000e+00       9.847626585255e-01       1.181909579902e-07       2.065888514182e-03      -1.677659437046e-06 
   16       8.592075065494e+02       2.879961680089e-03       0.000000000000e+00       1.046455630162e+00       1.203803477767e-07       1.999551680636e-03      -1.730090784600e-06 
   17       8.699060212025e+02       3.195467022574e-03       0.000000000000e+00       1.107977443019e+00       1.222937331261e-07       1.937189281825e-03      -1.413547108640e-06 
   18       8.812454967368e+02       3.651843253774e-03       0.000000000000e+00       1.168729364271e+00       1.239605820427e-07       1.878015039622e-03      -9.194941803792e-07 
   19       8.932004319871e+02       4.274456545283e-03       0.000000000000e+00       1.230521680227e+00       1.255524768952e-07       1.823254241433e-03      -4.101825751549e-07 
   20       9.056555746311e+02       5.068406417992e-03       0.000000000000e+00       1.296002225214e+00       1.269114699988e-07       1.769865826441e-03      -6.064985516279e-08 
   21       9.188861600432e+02       6.021521241670e-03       0.000000000000e+00       1.365193722359e+00       1.281229547604e-07       1.719432949708e-03       5.710596954651e-08 
   22       9.329520854007e+02       7.113489789221e-03       0.000000000000e+00       1.436918039049e+00       1.291751484050e-07       1.672797484372e-03      -6.348706806840e-08 
   23       9.472945994665e+02       8.346936824498e-03       0.000000000000e+00       1.510173889991e+00       1.301303073430e-07       1.629221246143e-03      -3.599513390992e-07 
   24       9.611530015028e+02       9.729240157083e-03       0.000000000000e+00       1.583440837310e+00       1.309270916462e-07       1.585887023051e-03      -7.136511979712e-07 
   25       9.752128532591e+02       1.125730899322e-02       0.000000000000e+00       1.653776507821e+00       1.316202806771e-07       1.544574678122e-03      -1.025070519868e-06 
   26       9.903745447224e+02       1.292556170139e-02       0.000000000000e+00       1.717693077024e+00       1.321994613350e-07       1.507323490767e-03      -1.199220614603e-06 
   27       1.006215199813e+03       1.474254390201e-02       0.000000000000e+00       1.773558704804e+00       1.326915900256e-07       1.472410399093e-03      -1.225886732246e-06 
   28       1.021887464254e+03       1.672211231257e-02       0.000000000000e+00       1.820510660701e+00       1.330587041707e-07       1.436124464516e-03      -1.136500424791e-06 
   29       1.037471702989e+03       1.887822765985e-02       0.000000000000e+00       1.858727067239e+00       1.333716494434e-07       1.399389345094e-03      -9.684289048822e-07 
   30       1.053303905942e+03       2.122614843683e-02       0.000000000000e+00       1.888979469271e+00       1.336522087269e-07       1.364479702258e-03      -7.783435536191e-07 
   31       1.069631206905e+03       2.378075462543e-02       0.000000000000e+00       1.912201725752e+00       1.338254821503e-07       1.333112807777e-03      -6.347557859350e-07 
   32       1.086391345494e+03       2.654876316452e-02       0.000000000000e+00       1.928589574032e+00       1.339339325302e-07       1.305222222661e-03      -5.611692722252e-07 
   33       1.103327171830e+03       2.953346971599e-02       0.000000000000e+00       1.938180700321e+00       1.340022392731e-07       1.279194488371e-03      -5.649250835163e-07 
   34       1.120151538883e+03       3.273778468472e-02       0.000000000000e+00       1.940889356774e+00       1.339920645697e-07       1.252733688127e-03      -6.451967356086e-07 
   35       1.136975369903e+03       3.616824019035e-02       0.000000000000e+00       1.935806230048e+00       1.339336006083e-07       1.225999592671e-03      -7.751781127226e-07 
   36       1.154019157621e+03       3.983231436593e-02       0.000000000000e+00       1.921634599783e+00       1.338343523148e-07       1.199773570456e-03      -9.084414753859e-07 
   37       1.171460488164e+03       4.373711125243e-02       0.000000000000e+00       1.897087300866e+00       1.336580801298e-07       1.174627131802e-03      -9.940067702491e-07 
   38       1.189307588892e+03       4.788849510375e-02       0.000000000000e+00       1.861671751168e+00       1.334420486833e-07       1.150887871445e-03      -1.023974414111e-06 
   39       1.207475642396e+03       5.229162502323e-02       0.000000000000e+00       1.815158447956e+00       1.332207223672e-07       1.128550117473e-03      -1.006974571266e-06 
   40       1.225812958980e+03       5.695114331582e-02       0.000000000000e+00       1.757375025931e+00       1.329815616630e-07       1.107191380760e-03      -9.573122786088e-07 
   41       1.244156828219e+03       6.187132781054e-02       0.000000000000e+00       1.688221985806e+00       1.326796132980e-07       1.086176275987e-03      -8.931042664980e-07 
   42       1.262537357458e+03       6.705669015868e-02       0.000000000000e+00       1.607718016343e+00       1.323363916870e-07       1.065592861108e-03      -8.274359496163e-07 
   43       1.281029895244e+03       7.251151510216e-02       0.000000000000e+00       1.515975042715e+00       1.319759599851e-07       1.045631585145e-03      -7.743566343883e-07 
   44       1.299697196115e+03       7.823967018786e-02       0.000000000000e+00       1.413191220764e+00       1.315908576632e-07       1.026307418192e-03      -7.516036642277e-07 
   45       1.318585906560e+03       8.424469016289e-02       0.000000000000e+00       1.299537214995e+00       1.311539539427e-07       1.007527044260e-03      -7.755270882462e-07 
   46       1.337718888301e+03       9.053011023983e-02       0.000000000000e+00       1.174764680164e+00       1.306883264944e-07       9.894126272424e-04      -8.421153846476e-07 
   47       1.357097627279e+03       9.709919637812e-02       0.000000000000e+00       1.038487812335e+00       1.302210820611e-07       9.720620000231e-04      -9.382681121764e-07 
   48       1.376701999556e+03       1.039548335846e-01       0.000000000000e+00       8.902885140326e-01       1.297599629396e-07       9.554376321538e-04      -1.046048360808e-06 
   49       1.396488422011e+03       1.110995107813e-01       0.000000000000e+00       7.297137680076e-01       1.292874674792e-07       9.393433775827e-04      -1.142121812367e-06 
   50       1.416408258402e+03       1.185351987862e-01       0.000000000000e+00       5.563406090046e-01       1.287723124038e-07       9.235176697202e-04      -1.203964769231e-06 
   51       1.436473217896e+03       1.262629803161e-01       0.000000000000e+00       3.699979228908e-01       1.282279388085e-07       9.080178341039e-04      -1.232927457980e-06 
   52       1.456704511585e+03       1.342832933950e-01       0.000000000000e+00       1.706003127882e-01       1.276735807593e-07       8.929477522003e-04      -1.239423982356e-06 
   53       1.477113273774e+03       1.425960097800e-01       0.000000000000e+00      -4.191369529212e-02       1.271158310187e-07       8.783428904562e-04      -1.237254042690e-06 
   54       1.497699665855e+03       1.512004147983e-01       0.000000000000e+00      -2.675810976010e-01       1.265451779869e-07       8.641590022273e-04      -1.243955964228e-06 
   55       1.518459859198e+03       1.600956168232e-01       0.000000000000e+00      -5.064391568248e-01       1.259440751727e-07       8.503152735246e-04      -1.276466117234e-06 
   56       1.539411068100e+03       1.692819410090e-01       0.000000000000e+00      -7.586081040199e-01       1.253254422530e-07       8.368711008102e-04      -1.335304664486e-06 
   57       1.560571165937e+03       1.787598464738e-01       0.000000000000e+00      -1.024228009753e+00       1.247061085664e-07       8.238935519598e-04      -1.415212740799e-06 
   58       1.581950774697e+03       1.885295236484e-01       0.000000000000e+00      -1.303435706549e+00       1.240946214601e-07       8.114013336359e-04      -1.509207033950e-06 
   59       1.603552675839e+03       1.985908908535e-01       0.000000000000e+00      -1.596365219721e+00       1.234891223266e-07       7.993577014320e-04      -1.608411754942e-06 
   60       1.625371221152e+03       2.089435908761e-01       0.000000000000e+00      -1.903148198195e+00       1.228750287886e-07       7.876630653084e-04      -1.701884546689e-06 
   61       1.647398168509e+03       2.195862968915e-01       0.000000000000e+00      -2.223865479648e+00       1.222327897068e-07       7.761989695220e-04      -1.779050366110e-06 
   62       1.669643052645e+03       2.305144559181e-01       0.000000000000e+00      -2.558388107039e+00       1.215714573725e-07       7.649956248130e-04      -1.838394232049e-06 
   63       1.692116362185e+03       2.417220304777e-01       0.000000000000e+00      -2.906501228635e+00       1.209054223578e-07       7.541066843231e-04      -1.881355139845e-06 
   64       1.714823140575e+03       2.532021197199e-01       0.000000000000e+00      -3.267948717276e+00       1.202443373865e-07       7.435589103765e-04      -1.910017453212e-06 
   65       1.737762600802e+03       2.649469340855e-01       0.000000000000e+00      -3.642432050733e+00       1.195919467361e-07       7.333484957290e-04      -1.927171521485e-06 
   66       1.760927740103e+03       2.769477699693e-01       0.000000000000e+00      -4.029609192058e+00       1.189448172901e-07       7.234372400909e-04      -1.936376327375e-06 
   67       1.784304954688e+03       2.891949843830e-01       0.000000000000e+00      -4.429093469944e+00       1.182909681101e-07       7.137485819224e-04      -1.942024165258e-06 
   68       1.807880505819e+03       3.016790137900e-01       0.000000000000e+00      -4.840523124870e+00       1.176157997415e-07       7.041988642305e-04      -1.948361627288e-06 
   69       1.831662300715e+03       3.143937269713e-01       0.000000000000e+00      -5.263788814085e+00       1.169262601095e-07       6.948117910729e-04      -1.956049395419e-06 
   70       1.855661853173e+03       3.273337091436e-01       0.000000000000e+00      -5.698850405548e+00       1.162336515653e-07       6.856311398316e-04      -1.964682932030e-06 
   71       1.879887616399e+03       3.404932792420e-01       0.000000000000e+00      -6.145671066251e+00       1.155464501827e-07       6.766866386098e-04      -1.973739471176e-06 
   72       1.904344772952e+03       3.538664912877e-01       0.000000000000e+00      -6.604217949883e+00       1.148696533948e-07       6.679921474596e-04      -1.982567927496e-06 
   73       1.929035024687e+03       3.674471357570e-01       0.000000000000e+00      -7.074462884495e+00       1.142040778338e-07       6.595437741391e-04      -1.990378492981e-06 
   74       1.953956382698e+03       3.812287409485e-01       0.000000000000e+00      -7.556383060164e+00       1.135456059379e-07       6.513179244008e-04      -1.996231921566e-06 
   75       1.979102957259e+03       3.952045743518e-01       0.000000000000e+00      -8.049961716659e+00       1.128843798881e-07       6.432692868088e-04      -1.999028501585e-06 
   76       2.004468709579e+03       4.093671291702e-01       0.000000000000e+00      -8.555133103646e+00       1.122091622056e-07       6.353493428875e-04      -1.997796519635e-06 
   77       2.030059961231e+03       4.237064727652e-01       0.000000000000e+00      -9.071604253873e+00       1.115243094738e-07       6.275725383543e-04      -1.992675314399e-06 
   78       2.055884794845e+03       4.382115981290e-01       0.000000000000e+00      -9.599001807814e+00       1.108373315347e-07       6.199643302632e-04      -1.984179076188e-06 
   79       2.081949167934e+03       4.528709029718e-01       0.000000000000e+00      -1.013692441018e+01       1.101538409917e-07       6.125411921575e-04      -1.972926598497e-06 
   80       2.108256784078e+03       4.676721805318e-01       0.000000000000e+00      -1.068494225482e+01       1.094771733696e-07       6.053096044909e-04      -1.959648097583e-06 
   81       2.134808964103e+03       4.826026103867e-01       0.000000000000e+00      -1.124259662970e+01       1.088079814446e-07       5.982650126972e-04      -1.945192202072e-06 
   82       2.161604517270e+03       4.976487492639e-01       0.000000000000e+00      -1.180939946178e+01       1.081438030764e-07       5.913907529053e-04      -1.930533112592e-06 
   83       2.188639612452e+03       5.127965218517e-01       0.000000000000e+00      -1.238483286197e+01       1.074786018769e-07       5.846569453023e-04      -1.916777931437e-06 
   84       2.215910072516e+03       5.280318129943e-01       0.000000000000e+00      -1.296838859586e+01       1.068056615120e-07       5.780324394515e-04      -1.904963039905e-06 
   85       2.243418976646e+03       5.433423772044e-01       0.000000000000e+00      -1.355969501100e+01       1.061285179510e-07       5.715266564132e-04      -1.895367722635e-06 
   86       2.271170088004e+03       5.587162303313e-01       0.000000000000e+00      -1.415841041501e+01       1.054527084900e-07       5.651560134543e-04      -1.888044340439e-06 
   87       2.299165455797e+03       5.741410772266e-01       0.000000000000e+00      -1.476418523329e+01       1.047824819272e-07       5.589311863079e-04      -1.883011926034e-06 
   88       2.327405327186e+03       5.896043126621e-01       0.000000000000e+00      -1.537666222506e+01       1.041205673613e-07       5.528565317252e-04      -1.880253214939e-06 
   89       2.355888059192e+03       6.050930222481e-01       0.000000000000e+00      -1.599547669927e+01       1.034679287744e-07       5.469294932882e-04      -1.879711594435e-06 
   90       2.384610030608e+03       6.205939833515e-01       0.000000000000e+00      -1.662025673058e+01       1.028235050664e-07       5.411399904849e-04      -1.881287970609e-06 
   91       2.413565553909e+03       6.360936660135e-01       0.000000000000e+00      -1.725062337525e+01       1.021839352080e-07       5.354697910455e-04      -1.884837553467e-06 
   92       2.442746787154e+03       6.515782338683e-01       0.000000000000e+00      -1.788619088716e+01       1.015432681791e-07       5.298918665409e-04      -1.890166560125e-06 
   93       2.472146132916e+03       6.670336977626e-01       0.000000000000e+00      -1.852655713234e+01       1.008954107397e-07       5.243798717465e-04      -1.897053336457e-06 
   94       2.501764039091e+03       6.824464010516e-01       0.000000000000e+00      -1.917127271446e+01       1.002430236665e-07       5.189405191998e-04      -1.905324754104e-06 
   95       2.531602213918e+03       6.978026093288e-01       0.000000000000e+00      -1.981986758349e+01       9.959070393094e-08       5.135872571161e-04      -1.914790749621e-06 
   96       2.561661190273e+03       7.130883672012e-01       0.000000000000e+00      -2.047186050365e+01       9.894234179512e-08       5.083304809850e-04      -1.925218768996e-06 
   97       2.591940271714e+03       7.282895013035e-01       0.000000000000e+00      -2.112675913481e+01       9.830099623127e-08       5.031772409393e-04      -1.936331113336e-06 
   98       2.622437478533e+03       7.433916233124e-01       0.000000000000e+00      -2.178406011393e+01       9.766876327035e-08       4.981309413181e-04      -1.947802224212e-06 
   99       2.653149493802e+03       7.583801329605e-01       0.000000000000e+00      -2.244324913640e+01       9.704663712858e-08       4.931910324242e-04      -1.959255908660e-06 
  100       2.684071609419e+03       7.732402210511e-01       0.000000000000e+00      -2.310380103754e+01       9.643436396026e-08       4.883526944762e-04      -1.970262503838e-06 
  101       2.715197672159e+03       7.879568724715e-01       0.000000000000e+00      -2.376517987393e+01       9.583028808543e-08       4.836065137540e-04      -1.980335981342e-06 
  102       2.746520029718e+03       8.025148692080e-01       0.000000000000e+00      -2.442683900487e+01       9.523119054069e-08       4.789381509394e-04      -1.988930991181e-06 
  103       2.778029476761e+03       8.168987933599e-01       0.000000000000e+00      -2.508822117375e+01       9.463211980182e-08       4.743280016506e-04      -1.995439845406e-06 
  104       2.809717220061e+03       8.310934325666e-01       0.000000000000e+00      -2.574876923375e+01       9.402822520484e-08       4.697577298509e-04      -1.999330258056e-06 
  105       2.841581192444e+03       8.450850521709e-01       0.000000000000e+00      -2.640795979965e+01       9.342122821130e-08       4.652321502724e-04      -2.000597309958e-06 
  106       2.873620495148e+03       8.588603013262e-01       0.000000000000e+00      -2.706527431477e+01       9.281435059177e-08       4.607611185987e-04      -1.999397051213e-06 
  107       2.905833423527e+03       8.724058332755e-01       0.000000000000e+00      -2.772018900871e+01       9.221038891119e-08       4.563528988352e-04      -1.995915089607e-06 
