# Matter power spectrum P(k) at redshift z=3
# for k=1.05321e-05 to 1.4771 h/Mpc,
# number of wavenumbers equal to 615
#    1:k (h/Mpc)              2:P (Mpc/h)^3        
       1.053207135887e-05       4.690075804730e+00 
       2.347678633603e-05       1.018397848885e+01 
       3.646755676761e-05       1.559282237692e+01 
       4.953968339449e-05       2.097063482621e+01 
       6.272905730712e-05       2.634892396696e+01 
       7.607248314028e-05       3.175176235182e+01 
       8.960801271004e-05       3.720003717900e+01 
       1.033752935702e-04       4.271320365394e+01 
       1.174159370004e-04       4.831019338766e+01 
       1.317739099701e-04       5.400997282045e+01 
       1.464959556300e-04       5.983193825995e+01 
       1.616320468122e-04       6.579770448052e+01 
       1.772358768301e-04       7.192561786142e+01 
       1.933653914705e-04       7.823944307264e+01 
       2.100833653645e-04       8.476312056631e+01 
       2.274580247750e-04       9.152235062439e+01 
       2.455637170547e-04       9.854484115530e+01 
       2.644816243947e-04       1.058605588150e+02 
       2.843005156898e-04       1.135012629326e+02 
       3.051175250571e-04       1.215035721097e+02 
       3.270389383553e-04       1.299050582400e+02 
       3.501809595306e-04       1.387471710467e+02 
       3.746704163911e-04       1.480747466213e+02 
       4.006453502154e-04       1.579361173871e+02 
       4.282554155180e-04       1.683831280869e+02 
       4.576619959385e-04       1.794710209983e+02 
       4.890379211485e-04       1.912751632522e+02 
       5.225666507057e-04       2.038228703280e+02 
       5.584407784714e-04       2.171944071593e+02 
       5.968597119024e-04       2.314524100934e+02 
       6.380264021377e-04       2.466566032792e+02 
       6.821430515829e-04       2.628708479700e+02 
       7.294058119424e-04       2.802924309424e+02 
       7.799986081953e-04       2.986841228271e+02 
       8.340863742226e-04       3.182412804448e+02 
       8.918081426825e-04       3.390400545409e+02 
       9.532705623805e-04       3.609476314527e+02 
       1.018542481906e-03       3.841122026382e+02 
       1.087651205384e-03       4.084628775772e+02 
       1.160580881032e-03       4.338861069172e+02 
       1.237273241832e-03       4.603849776146e+02 
       1.317630625764e-03       4.878469591849e+02 
       1.401520923797e-03       5.162816969502e+02 
       1.477104874446e-03       5.416080234180e+02 
       1.488783896906e-03       5.454782223305e+02 
       1.579238205896e-03       5.754461208406e+02 
       1.672688514496e-03       6.060797932568e+02 
       1.768932133438e-03       6.372259866145e+02 
       1.867764831262e-03       6.688074778089e+02 
       1.968985605982e-03       7.007071188160e+02 
       2.072400359679e-03       7.328959797741e+02 
       2.177824528995e-03       7.652768342558e+02 
       2.285084794437e-03       7.977475305887e+02 
       2.394020025301e-03       8.302399429951e+02 
       2.504481623677e-03       8.627201323929e+02 
       2.616333420012e-03       8.951257335009e+02 
       2.729451252251e-03       9.273940234328e+02 
       2.843722336555e-03       9.595038918020e+02 
       2.959044513996e-03       9.913903103364e+02 
       3.075325436471e-03       1.023047716461e+03 
       3.192481737368e-03       1.054418557420e+03 
       3.310438218310e-03       1.085508241520e+03 
       3.429127072395e-03       1.116282012596e+03 
       3.548487156208e-03       1.146707177846e+03 
       3.668463317002e-03       1.176791072498e+03 
       3.789005777345e-03       1.206493795947e+03 
       3.910069576745e-03       1.235833337966e+03 
       4.031614067989e-03       1.264780365835e+03 
       4.153602464881e-03       1.293335724005e+03 
       4.276001437482e-03       1.321490504837e+03 
       4.398780750731e-03       1.349228844905e+03 
       4.521912942362e-03       1.376560965851e+03 
       4.645373036147e-03       1.403478690258e+03 
       4.769138286764e-03       1.429954819913e+03 
       4.893187952858e-03       1.461046137958e+03 
       5.017503095169e-03       1.460409753305e+03 
       5.142066396909e-03       1.516576626766e+03 
       5.266862003839e-03       1.485586468472e+03 
       5.391875381810e-03       1.531122452137e+03 
       5.517093189744e-03       1.543193207700e+03 
       5.642503166273e-03       1.582399028502e+03 
       5.768094028485e-03       1.616440584414e+03 
       5.893855381361e-03       1.611388885289e+03 
       6.019777636705e-03       1.642423657857e+03 
       6.145851940473e-03       1.658579205868e+03 
       6.272070107553e-03       1.686597407748e+03 
       6.398424563173e-03       1.712703689401e+03 
       6.524908290179e-03       1.719740216499e+03 
       6.651514781553e-03       1.743757849462e+03 
       6.778237997586e-03       1.767307218560e+03 
       6.905072327207e-03       1.783303213588e+03 
       7.032012553019e-03       1.804788099998e+03 
       7.159053819651e-03       1.825103691766e+03 
       7.286191605069e-03       1.837625894789e+03 
       7.413421694548e-03       1.856757735929e+03 
       7.540740157025e-03       1.875784513612e+03 
       7.668143323590e-03       1.893844479414e+03 
       7.795627767897e-03       1.909024144711e+03 
       7.923190288315e-03       1.926207590463e+03 
       8.050827891628e-03       1.942856491055e+03 
       8.178537778148e-03       1.956160998604e+03 
       8.306317328104e-03       1.972011965987e+03 
       8.434164089173e-03       1.987378400197e+03 
       8.562075765057e-03       2.002276406594e+03 
       8.690050205004e-03       2.016112797952e+03 
       8.818085394187e-03       2.030287864129e+03 
       8.946179444859e-03       2.044108625363e+03 
       9.074330588217e-03       2.057505525853e+03 
       9.202537166913e-03       2.069908401892e+03 
       9.330797628154e-03       2.082661660952e+03 
       9.459110517333e-03       2.095103613502e+03 
       9.587474472157e-03       2.107202968196e+03 
       9.715888217219e-03       2.118890338867e+03 
       9.844350558985e-03       2.130341613491e+03 
       9.972860381151e-03       2.141471783669e+03 
       1.010141664035e-02       2.152292673898e+03 
       1.023001836218e-02       2.162798376703e+03 
       1.035866463752e-02       2.173287216118e+03 
       1.048735461909e-02       2.183232973440e+03 
       1.061608751830e-02       2.192888949435e+03 
       1.074486260234e-02       2.202241396095e+03 
       1.087367919136e-02       2.211567552107e+03 
       1.100253665604e-02       2.220371970509e+03 
       1.113143441514e-02       2.228897617089e+03 
       1.126037193335e-02       2.237163751936e+03 
       1.138934871928e-02       2.245133873714e+03 
       1.151836432349e-02       2.253538007428e+03 
       1.164741833680e-02       2.261021876597e+03 
       1.177651038861e-02       2.268250982096e+03 
       1.190564014539e-02       2.275213953672e+03 
       1.203480730925e-02       2.281921616032e+03 
       1.216401161664e-02       2.288433273014e+03 
       1.229325283711e-02       2.295064993834e+03 
       1.242253077218e-02       2.301063908210e+03 
       1.255184525426e-02       2.306806792330e+03 
       1.268119614570e-02       2.312306920325e+03 
       1.281058333786e-02       2.317598633723e+03 
       1.294000675025e-02       2.323544465450e+03 
       1.306946632978e-02       2.328398887826e+03 
       1.319896205001e-02       2.333032376031e+03 
       1.332849391050e-02       2.337428383279e+03 
       1.345806193617e-02       2.341626604669e+03 
       1.358766617675e-02       2.345603324934e+03 
       1.371730670626e-02       2.349818640986e+03 
       1.384698362252e-02       2.353383553511e+03 
       1.397669704671e-02       2.356710324931e+03 
       1.410644712299e-02       2.359837428292e+03 
       1.423623401812e-02       2.362813431647e+03 
       1.436605792116e-02       2.365527194372e+03 
       1.449591904315e-02       2.368066528804e+03 
       1.462581761686e-02       2.371426039479e+03 
       1.475575389659e-02       2.373625936037e+03 
       1.477104874446e-02       2.373865399681e+03 
       1.488572815792e-02       2.375610914767e+03 
       1.501574069757e-02       2.377437820229e+03 
       1.514579183326e-02       2.379044121693e+03 
       1.527588190356e-02       2.380446577994e+03 
       1.540601126783e-02       2.382197391554e+03 
       1.553618030613e-02       2.383305895441e+03 
       1.566638941918e-02       2.384219621247e+03 
       1.579663902834e-02       2.384971767137e+03 
       1.592692957557e-02       2.385533001852e+03 
       1.605726152350e-02       2.385891103979e+03 
       1.618763535545e-02       2.386121795284e+03 
       1.631805157546e-02       2.386209035019e+03 
       1.644851070840e-02       2.387116139680e+03 
       1.657901330005e-02       2.386856020803e+03 
       1.670955991721e-02       2.386487840384e+03 
       1.684015114786e-02       2.385933466971e+03 
       1.697078760126e-02       2.385255606149e+03 
       1.710146990818e-02       2.384397116446e+03 
       1.723219872103e-02       2.383354428896e+03 
       1.736297471409e-02       2.382726828475e+03 
       1.749379858373e-02       2.381432725324e+03 
       1.762467104864e-02       2.380027292911e+03 
       1.775559285008e-02       2.378419631796e+03 
       1.788656475215e-02       2.376725001738e+03 
       1.801758754208e-02       2.374872481254e+03 
       1.814866203055e-02       2.372866539687e+03 
       1.827978905196e-02       2.370764152661e+03 
       1.841096946481e-02       2.368513341347e+03 
       1.854220415207e-02       2.367164904308e+03 
       1.867349402147e-02       2.364654896184e+03 
       1.880484000599e-02       2.362070575641e+03 
       1.893624306415e-02       2.359326272196e+03 
       1.906770418056e-02       2.356465413918e+03 
       1.919922436623e-02       2.353524364551e+03 
       1.933080465913e-02       2.350406908798e+03 
       1.946244612460e-02       2.347210088087e+03 
       1.959414985587e-02       2.344384611696e+03 
       1.972591697456e-02       2.340984747877e+03 
       1.985774863121e-02       2.337430532612e+03 
       1.998964600584e-02       2.333824258139e+03 
       2.012161030850e-02       2.330067498052e+03 
       2.025364277988e-02       2.326216357930e+03 
       2.038574469188e-02       2.322274287962e+03 
       2.051791734829e-02       2.318194130943e+03 
       2.065016208540e-02       2.314065499807e+03 
       2.078248027267e-02       2.309842383875e+03 
       2.091487331345e-02       2.306440417250e+03 
       2.104734264569e-02       2.302054320798e+03 
       2.117988974265e-02       2.297519749323e+03 
       2.131251611369e-02       2.292945288198e+03 
       2.144522330506e-02       2.288258088575e+03 
       2.157801290068e-02       2.283474588734e+03 
       2.171088652302e-02       2.278624985334e+03 
       2.184384583393e-02       2.273695101930e+03 
       2.197689253554e-02       2.268652107275e+03 
       2.211002837119e-02       2.264026791686e+03 
       2.224325512638e-02       2.258832616268e+03 
       2.237657462972e-02       2.253597534878e+03 
       2.250998875397e-02       2.248248509824e+03 
       2.264349941705e-02       2.242873704732e+03 
       2.277710858314e-02       2.237360697909e+03 
       2.291081826378e-02       2.231843263868e+03 
       2.304463051899e-02       2.226184933103e+03 
       2.317854745845e-02       2.220522339539e+03 
       2.331257124276e-02       2.214787463910e+03 
       2.344670408461e-02       2.208928689883e+03 
       2.358094825013e-02       2.203989281835e+03 
       2.371530606022e-02       2.198039259824e+03 
       2.384977989188e-02       2.192073716343e+03 
       2.398437217967e-02       2.185993010460e+03 
       2.411908541715e-02       2.179910295366e+03 
       2.425392215840e-02       2.173713147276e+03 
       2.438888501957e-02       2.167508408992e+03 
       2.452397668047e-02       2.161236761554e+03 
       2.465919988629e-02       2.154891831598e+03 
       2.479455744922e-02       2.148509560865e+03 
       2.493005225031e-02       2.142076793062e+03 
       2.506568724123e-02       2.136017484014e+03 
       2.520146544620e-02       2.129511112569e+03 
       2.533738996391e-02       2.122927217103e+03 
       2.547346396957e-02       2.116319959290e+03 
       2.560969071694e-02       2.109627292720e+03 
       2.574607354053e-02       2.102938119285e+03 
       2.588261585780e-02       2.096208394923e+03 
       2.601932117147e-02       2.089387854977e+03 
       2.615619307190e-02       2.082571606019e+03 
       2.629323523954e-02       2.075688016340e+03 
       2.643045144746e-02       2.068769570301e+03 
       2.656784556406e-02       2.061840369984e+03 
       2.670542155569e-02       2.055711481759e+03 
       2.684318348955e-02       2.048725636141e+03 
       2.698113553660e-02       2.041669390747e+03 
       2.711928197456e-02       2.034628223204e+03 
       2.725762719108e-02       2.027507570032e+03 
       2.739617568696e-02       2.020395356950e+03 
       2.753493207954e-02       2.013242276978e+03 
       2.767390110621e-02       2.006074940105e+03 
       2.781308762796e-02       1.998838129950e+03 
       2.795249663323e-02       1.991625752099e+03 
       2.809213324174e-02       1.984339065800e+03 
       2.823200270857e-02       1.977078546794e+03 
       2.837211042832e-02       1.970156242663e+03 
       2.851246193954e-02       1.962832886355e+03 
       2.865306292917e-02       1.955491376564e+03 
       2.879391923731e-02       1.948101070304e+03 
       2.893503686209e-02       1.940731507763e+03 
       2.907642196473e-02       1.933330914540e+03 
       2.921808087486e-02       1.925897391318e+03 
       2.936002009600e-02       1.918436784926e+03 
       2.950224631126e-02       1.911003162459e+03 
       2.964476638933e-02       1.903495531647e+03 
       2.978758739067e-02       1.896013315722e+03 
       2.993071657393e-02       1.888501953017e+03 
       3.007416140270e-02       1.880979492003e+03 
       3.021792955254e-02       1.874230502072e+03 
       3.036202891825e-02       1.866676353065e+03 
       3.050646762150e-02       1.859146676771e+03 
       3.065125401878e-02       1.851592618438e+03 
       3.079639670972e-02       1.844029155206e+03 
       3.094190454572e-02       1.836432799090e+03 
       3.108778663899e-02       1.828867380787e+03 
       3.123405237206e-02       1.821251870058e+03 
       3.138071140758e-02       1.813641225768e+03 
       3.152777369872e-02       1.806046723899e+03 
       3.167524949993e-02       1.798409818294e+03 
       3.182314937828e-02       1.790807038695e+03 
       3.197148422528e-02       1.783156825355e+03 
       3.212026526928e-02       1.775520074010e+03 
       3.226950408847e-02       1.768259880636e+03 
       3.241921262451e-02       1.760598481423e+03 
       3.256940319678e-02       1.752968932587e+03 
       3.272008851743e-02       1.745322075345e+03 
       3.287128170703e-02       1.737686927722e+03 
       3.302299631115e-02       1.730010478755e+03 
       3.317524631772e-02       1.722370135655e+03 
       3.332804617524e-02       1.714715882690e+03 
       3.348141081201e-02       1.707049234702e+03 
       3.363535565632e-02       1.699402212922e+03 
       3.378989665768e-02       1.691715234773e+03 
       3.394505030927e-02       1.684068978558e+03 
       3.410083367152e-02       1.676407453493e+03 
       3.425726439700e-02       1.668721723328e+03 
       3.441436075671e-02       1.661781307526e+03 
       3.457214166778e-02       1.654131907101e+03 
       3.473062672279e-02       1.646488852789e+03 
       3.488983622072e-02       1.638822491152e+03 
       3.504979119970e-02       1.631187287392e+03 
       3.521051347167e-02       1.623536593749e+03 
       3.537202565908e-02       1.615878090573e+03 
       3.553435123374e-02       1.608250935406e+03 
       3.569751455812e-02       1.600583797263e+03 
       3.586154092905e-02       1.592956382198e+03 
       3.602645662418e-02       1.585315237506e+03 
       3.619228895139e-02       1.577655207004e+03 
       3.635906630119e-02       1.570032267201e+03 
       3.652681820264e-02       1.562398502966e+03 
       3.669557538281e-02       1.555097228060e+03 
       3.686536983016e-02       1.547454270005e+03 
       3.703623486213e-02       1.539843437155e+03 
       3.720820519734e-02       1.532209953316e+03 
       3.738131703266e-02       1.524577328322e+03 
       3.755560812569e-02       1.516972735821e+03 
       3.773111788294e-02       1.509332749627e+03 
       3.790788745434e-02       1.501729859005e+03 
       3.808595983462e-02       1.494101685395e+03 
       3.826537997195e-02       1.486469871581e+03 
       3.844619488481e-02       1.478867611920e+03 
       3.862845378759e-02       1.471227397787e+03 
       3.881220822571e-02       1.463610248648e+03 
       3.899751222133e-02       1.455986407934e+03 
       3.918442243046e-02       1.448996389570e+03 
       3.937299831260e-02       1.441366480710e+03 
       3.956330231420e-02       1.433740966540e+03 
       3.975540006714e-02       1.426124041496e+03 
       3.994936060388e-02       1.418489781113e+03 
       4.014525659091e-02       1.410870940222e+03 
       4.034316458228e-02       1.403217557924e+03 
       4.054316529551e-02       1.395585080035e+03 
       4.074534391208e-02       1.387934812157e+03 
       4.094979040517e-02       1.380259676339e+03 
       4.115659989782e-02       1.372610847182e+03 
       4.136587305461e-02       1.364944073358e+03 
       4.157771651098e-02       1.357252128515e+03 
       4.179224334428e-02       1.349834002759e+03 
       4.200957359164e-02       1.342144536372e+03 
       4.222983482023e-02       1.334410031598e+03 
       4.245316275624e-02       1.326689773989e+03 
       4.267970198001e-02       1.318931261407e+03 
       4.290960669563e-02       1.311176351291e+03 
       4.314304158466e-02       1.303380676499e+03 
       4.338018275508e-02       1.295571183928e+03 
       4.362121879839e-02       1.287744871534e+03 
       4.386635196952e-02       1.279901551624e+03 
       4.411579950707e-02       1.271996541222e+03 
       4.436979511379e-02       1.264100192413e+03 
       4.462859062089e-02       1.256134234281e+03 
       4.489245786378e-02       1.248703907202e+03 
       4.516169080142e-02       1.240688868393e+03 
       4.543660791777e-02       1.232649744173e+03 
       4.571755495032e-02       1.224546578086e+03 
       4.600490799961e-02       1.216420914305e+03 
       4.629907708358e-02       1.208218835268e+03 
       4.660051021371e-02       1.199982811986e+03 
       4.690969808471e-02       1.191674921984e+03 
       4.722717948916e-02       1.183289398861e+03 
       4.755354759139e-02       1.174864173530e+03 
       4.788945722439e-02       1.166585727672e+03 
       4.823563340957e-02       1.157998793225e+03 
       4.859288134448e-02       1.149306413241e+03 
       4.896209816056e-02       1.140520769548e+03 
       4.934428682471e-02       1.131633376459e+03 
       4.974057264907e-02       1.122634279605e+03 
       5.015222298858e-02       1.113479019041e+03 
       5.058067085242e-02       1.104192437146e+03 
       5.102754334193e-02       1.094758859872e+03 
       5.149469606576e-02       1.085618087912e+03 
       5.198425498566e-02       1.075821516281e+03 
       5.249866752966e-02       1.065826937314e+03 
       5.304076529042e-02       1.055580374978e+03 
       5.361384121891e-02       1.045062723274e+03 
       5.422174493139e-02       1.034249185101e+03 
       5.486900054612e-02       1.023279220532e+03 
       5.556095226421e-02       1.011711668902e+03 
       5.630394348003e-02       9.996729049242e+02 
       5.710553503960e-02       9.870902772745e+02 
       5.797476631054e-02       9.738780876142e+02 
       5.892245691579e-02       9.602699413859e+02 
       5.996153347753e-02       9.453795093657e+02 
