# Matter power spectrum P(k) at redshift z=0
# for k=1.04945e-05 to 1.4771 h/Mpc,
# number of wavenumbers equal to 615
#    1:k (h/Mpc)              2:P (Mpc/h)^3        
       1.049447894843e-05       4.722275442103e+01 
       2.340367804213e-05       1.025839242080e+02 
       3.635853175762e-05       1.570855820638e+02 
       4.939404981020e-05       2.112712236930e+02 
       6.254582401111e-05       2.654613793383e+02 
       7.585034701787e-05       3.198898024154e+02 
       8.934534132641e-05       3.747689163991e+02 
       1.030701028981e-04       4.302932421357e+02 
       1.170658638485e-04       4.866518630448e+02 
       1.313761786573e-04       5.440340191696e+02 
       1.460473383665e-04       6.026330458831e+02 
       1.611288171683e-04       6.626967638868e+02 
       1.766737556010e-04       7.243458325030e+02 
       1.927394841889e-04       7.878473267486e+02 
       2.093880906823e-04       8.534385441694e+02 
       2.266870329427e-04       9.213733134191e+02 
       2.447097978035e-04       9.919268216601e+02 
       2.635366036878e-04       1.065416981532e+03 
       2.832551411051e-04       1.142123874648e+03 
       3.039613400430e-04       1.222466251052e+03 
       3.257601463183e-04       1.306703049616e+03 
       3.487662797560e-04       1.395397862036e+03 
       3.731049352309e-04       1.488724624159e+03 
       3.989123728880e-04       1.587297942741e+03 
       4.263363262953e-04       1.691852141958e+03 
       4.555361374528e-04       1.802663929481e+03 
       4.866825069177e-04       1.920556650471e+03 
       5.199567284886e-04       2.046164662907e+03 
       5.555492652246e-04       2.179507260201e+03 
       5.936575231323e-04       2.321934557444e+03 
       6.344826982703e-04       2.473547278620e+03 
       6.782256203700e-04       2.635315598768e+03 
       7.250815977430e-04       2.807429011464e+03 
       7.752343855937e-04       2.990419208315e+03 
       8.288495453430e-04       3.185074249685e+03 
       8.860676167767e-04       3.391522158591e+03 
       9.469976565192e-04       3.609533626458e+03 
       1.011711767745e-03       3.839571764491e+03 
       1.080241223639e-03       4.081046980585e+03 
       1.152574655214e-03       4.333644793304e+03 
       1.228658545284e-03       4.596906403401e+03 
       1.308399986893e-03       4.870254082198e+03 
       1.391671386811e-03       5.153052078640e+03 
       1.477104874446e-03       5.440023424782e+03 
       1.478316582449e-03       5.444125905332e+03 
       1.568157732720e-03       5.742512922318e+03 
       1.661002348183e-03       6.047477809559e+03 
       1.756649922560e-03       6.357811199236e+03 
       1.854897778922e-03       6.672753867713e+03 
       1.955545909287e-03       6.991343294281e+03 
       2.058400734833e-03       7.312585539516e+03 
       2.163277827351e-03       7.635743290638e+03 
       2.270003705994e-03       7.959977499668e+03 
       2.378416860634e-03       8.284773020192e+03 
       2.488368162589e-03       8.609340444127e+03 
       2.599720814563e-03       8.933231597276e+03 
       2.712349972448e-03       9.238430847348e+03 
       2.826142148362e-03       9.640672879779e+03 
       2.940994480966e-03       9.848385388215e+03 
       3.056813937958e-03       1.010572572363e+04 
       3.173516497801e-03       1.052769074097e+04 
       3.291026343326e-03       1.079837324001e+04 
       3.409275088705e-03       1.132823466471e+04 
       3.528201052947e-03       1.139513408967e+04 
       3.647748586969e-03       1.170898249413e+04 
       3.767867457063e-03       1.224690584520e+04 
       3.888512284658e-03       1.234536211193e+04 
       4.009642040381e-03       1.267489416246e+04 
       4.131219589315e-03       1.279439625291e+04 
       4.253211283678e-03       1.332170584409e+04 
       4.375586598924e-03       1.346519534136e+04 
       4.498317809224e-03       1.377660978755e+04 
       4.621379698402e-03       1.392695878359e+04 
       4.744749302645e-03       1.440618914345e+04 
       4.868405681575e-03       1.456904140449e+04 
       4.992329714539e-03       1.488008390612e+04 
       5.116503919315e-03       1.504270278432e+04 
       5.240912290666e-03       1.547030592255e+04 
       5.365540156501e-03       1.564096856527e+04 
       5.490374049608e-03       1.592982082158e+04 
       5.615401593169e-03       1.610234122742e+04 
       5.740611398487e-03       1.628738532056e+04 
       5.865992973513e-03       1.664495173248e+04 
       5.991536640951e-03       1.682448118925e+04 
       6.117233464844e-03       1.707993465942e+04 
       6.243075184694e-03       1.725713994225e+04 
       6.369054156265e-03       1.743754152930e+04 
       6.495163298322e-03       1.774048341862e+04 
       6.621396044664e-03       1.791763913825e+04 
       6.747746300858e-03       1.808904946416e+04 
       6.874208405174e-03       1.831530430725e+04 
       7.000777093264e-03       1.848620522332e+04 
       7.127447466187e-03       1.865964452500e+04 
       7.254214961438e-03       1.890434406973e+04 
       7.381075326651e-03       1.907302346908e+04 
       7.508024595712e-03       1.923402578997e+04 
       7.635059067039e-03       1.939667842071e+04 
       7.762175283794e-03       1.958727247114e+04 
       7.889370015854e-03       1.974436309426e+04 
       8.016640243352e-03       1.989858737047e+04 
       8.143983141644e-03       2.009951587451e+04 
       8.271396067561e-03       2.024805356985e+04 
       8.398876546816e-03       2.039372539698e+04 
       8.526422262476e-03       2.053826888472e+04 
       8.654031044375e-03       2.069643766799e+04 
       8.781700859402e-03       2.083498477400e+04 
       8.909429802568e-03       2.096926682185e+04 
       9.037216088799e-03       2.110286597988e+04 
       9.165058045369e-03       2.126210343459e+04 
       9.292954104932e-03       2.138980434333e+04 
       9.420902799100e-03       2.151217660268e+04 
       9.548902752510e-03       2.163329804421e+04 
       9.676952677348e-03       2.176410451231e+04 
       9.805051368284e-03       2.187888985771e+04 
       9.933197697790e-03       2.199154354869e+04 
       1.006139061181e-02       2.210206289751e+04 
       1.018962912573e-02       2.222832613316e+04 
       1.031791232068e-02       2.233262193293e+04 
       1.044623934008e-02       2.243436696263e+04 
       1.057460938643e-02       2.253334541939e+04 
       1.070302171833e-02       2.262936219131e+04 
       1.083147564777e-02       2.273096652138e+04 
       1.095997053750e-02       2.282205679371e+04 
       1.108850579872e-02       2.291054866898e+04 
       1.121708088881e-02       2.299663721331e+04 
       1.134569530930e-02       2.307974714931e+04 
       1.147434860397e-02       2.317263611721e+04 
       1.160304035703e-02       2.325094121921e+04 
       1.173177019151e-02       2.332702133941e+04 
       1.186053776769e-02       2.340036082304e+04 
       1.198934278168e-02       2.347127590214e+04 
       1.211818496408e-02       2.354052974984e+04 
       1.224706407876e-02       2.361145489940e+04 
       1.237597992169e-02       2.367538138395e+04 
       1.250493231988e-02       2.373692000292e+04 
       1.263392113039e-02       2.379610487717e+04 
       1.276294623940e-02       2.385313328218e+04 
       1.289200756136e-02       2.391539613619e+04 
       1.302110503820e-02       2.396798478463e+04 
       1.315023863859e-02       2.401837701504e+04 
       1.327940835728e-02       2.406648954389e+04 
       1.340861421447e-02       2.411252118881e+04 
       1.353785625521e-02       2.415655688611e+04 
       1.366713454890e-02       2.420131396552e+04 
       1.379644918881e-02       2.424108157047e+04 
       1.392580029162e-02       2.427864955274e+04 
       1.405518799700e-02       2.431417534131e+04 
       1.418461246729e-02       2.434813618777e+04 
       1.431407388714e-02       2.437957282696e+04 
       1.444357246321e-02       2.440934186830e+04 
       1.457310842393e-02       2.444174076301e+04 
       1.470268201923e-02       2.446775160392e+04 
       1.477104874446e-02       2.448051039683e+04 
       1.483229352036e-02       2.449175117103e+04 
       1.496194321974e-02       2.451396858896e+04 
       1.509163143075e-02       2.453432809651e+04 
       1.522135848763e-02       2.455265529128e+04 
       1.535112474543e-02       2.457115431491e+04 
       1.548093057987e-02       2.458612006925e+04 
       1.561077638731e-02       2.459935739221e+04 
       1.574066258474e-02       2.461084232736e+04 
       1.587058960974e-02       2.462065988582e+04 
       1.600055792053e-02       2.462859524055e+04 
       1.613056799599e-02       2.463497485785e+04 
       1.626062033568e-02       2.463981098235e+04 
       1.639071545997e-02       2.464586819351e+04 
       1.652085391011e-02       2.464731883157e+04 
       1.665103624832e-02       2.464738485930e+04 
       1.678126305793e-02       2.464573828457e+04 
       1.691153494356e-02       2.464269231792e+04 
       1.704185253123e-02       2.463811061122e+04 
       1.717221646859e-02       2.463187714653e+04 
       1.730262742509e-02       2.462546934261e+04 
       1.743308609220e-02       2.461644629241e+04 
       1.756359318365e-02       2.460603012218e+04 
       1.769414943569e-02       2.459405392809e+04 
       1.782475560732e-02       2.458076856607e+04 
       1.795541248062e-02       2.456617475003e+04 
       1.808612086101e-02       2.455013694568e+04 
       1.821688157760e-02       2.453276639529e+04 
       1.834769548349e-02       2.451601751306e+04 
       1.847856345614e-02       2.449613033094e+04 
       1.860948639773e-02       2.447485954105e+04 
       1.874046523556e-02       2.445237675866e+04 
       1.887150092242e-02       2.442874326035e+04 
       1.900259443702e-02       2.440378068054e+04 
       1.913374678445e-02       2.437769710571e+04 
       1.926495899659e-02       2.435038602617e+04 
       1.939623213261e-02       2.432192574218e+04 
       1.952756727946e-02       2.429313343644e+04 
       1.965896555235e-02       2.426246646913e+04 
       1.979042809530e-02       2.423058625804e+04 
       1.992195608168e-02       2.419772389535e+04 
       2.005355071477e-02       2.416375690554e+04 
       2.018521322835e-02       2.412868417132e+04 
       2.031694488728e-02       2.409266790212e+04 
       2.044874698816e-02       2.405553151568e+04 
       2.058062085995e-02       2.401750576973e+04 
       2.071256786465e-02       2.397974609977e+04 
       2.084458939798e-02       2.393969349393e+04 
       2.097668689010e-02       2.389876618774e+04 
       2.110886180632e-02       2.385685311456e+04 
       2.124111564789e-02       2.381407417491e+04 
       2.137344995276e-02       2.377040262613e+04 
       2.150586629642e-02       2.372578583564e+04 
       2.163836629266e-02       2.368037506888e+04 
       2.177095159452e-02       2.363411023872e+04 
       2.190362389510e-02       2.358694232662e+04 
       2.203638492852e-02       2.353957019941e+04 
       2.216923647086e-02       2.349079717103e+04 
       2.230218034108e-02       2.344131254702e+04 
       2.243521840209e-02       2.339098938833e+04 
       2.256835256176e-02       2.333996436580e+04 
       2.270158477395e-02       2.328814470441e+04 
       2.283491703967e-02       2.323565671203e+04 
       2.296835140816e-02       2.318239152419e+04 
       2.310188997809e-02       2.312848720188e+04 
       2.323553489874e-02       2.307390987812e+04 
       2.336928837129e-02       2.301858238738e+04 
       2.350315265006e-02       2.296362369783e+04 
       2.363713004382e-02       2.290704703948e+04 
       2.377122291722e-02       2.284988988179e+04 
       2.390543369213e-02       2.279206976228e+04 
       2.403976484913e-02       2.273370597961e+04 
       2.417421892901e-02       2.267470053335e+04 
       2.430879853430e-02       2.261517754766e+04 
       2.444350633087e-02       2.255509832030e+04 
       2.457834504960e-02       2.249442006759e+04 
       2.471331748806e-02       2.243325732638e+04 
       2.484842651228e-02       2.237154029393e+04 
       2.498367505857e-02       2.230974189485e+04 
       2.511906613536e-02       2.224705308874e+04 
       2.525460282521e-02       2.218389520689e+04 
       2.539028828673e-02       2.212025022373e+04 
       2.552612575672e-02       2.205614344520e+04 
       2.566211855224e-02       2.199161250447e+04 
       2.579827007290e-02       2.192665601634e+04 
       2.593458380306e-02       2.186123121629e+04 
       2.607106331428e-02       2.179545373797e+04 
       2.620771226770e-02       2.172922536224e+04 
       2.634453441659e-02       2.166264505241e+04 
       2.648153360900e-02       2.159567736390e+04 
       2.661871379042e-02       2.152908225535e+04 
       2.675607900660e-02       2.146141083180e+04 
       2.689363340650e-02       2.139339180809e+04 
       2.703138124523e-02       2.132506438805e+04 
       2.716932688721e-02       2.125637463157e+04 
       2.730747480939e-02       2.118741668101e+04 
       2.744582960461e-02       2.111814539556e+04 
       2.758439598503e-02       2.104857766898e+04 
       2.772317878579e-02       2.097871586238e+04 
       2.786218296868e-02       2.090861357966e+04 
       2.800141362605e-02       2.083821693827e+04 
       2.814087598484e-02       2.076759988582e+04 
       2.828057541070e-02       2.069702510032e+04 
       2.842051741237e-02       2.062592959438e+04 
       2.856070764616e-02       2.055459854073e+04 
       2.870115192063e-02       2.048304168566e+04 
       2.884185620143e-02       2.041129830612e+04 
       2.898282661637e-02       2.033935581980e+04 
       2.912406946065e-02       2.026719629773e+04 
       2.926559120233e-02       2.019486595820e+04 
       2.940739848803e-02       2.012237227307e+04 
       2.954949814880e-02       2.004967959205e+04 
       2.969189720630e-02       1.997686505409e+04 
       2.983460287922e-02       1.990386716622e+04 
       2.997762258996e-02       1.983075558888e+04 
       3.012096397155e-02       1.975808573885e+04 
       3.026463487496e-02       1.968469879028e+04 
       3.040864337662e-02       1.961120808605e+04 
       3.055299778635e-02       1.953760155382e+04 
       3.069770665559e-02       1.946387522817e+04 
       3.084277878598e-02       1.939004144016e+04 
       3.098822323838e-02       1.931613608971e+04 
       3.113404934220e-02       1.924210835869e+04 
       3.128026670528e-02       1.916802132797e+04 
       3.142688522408e-02       1.909385701636e+04 
       3.157391509446e-02       1.901961334461e+04 
       3.172136682287e-02       1.894531835201e+04 
       3.186925123812e-02       1.887093444964e+04 
       3.201757950369e-02       1.879652676720e+04 
       3.216636313061e-02       1.872233447275e+04 
       3.231561399100e-02       1.864781557618e+04 
       3.246534433225e-02       1.857328311193e+04 
       3.261556679187e-02       1.849871175317e+04 
       3.276629441311e-02       1.842410489341e+04 
       3.291754066138e-02       1.834945737036e+04 
       3.306931944145e-02       1.827481587137e+04 
       3.322164511557e-02       1.820013217457e+04 
       3.337453252250e-02       1.812545442006e+04 
       3.352799699759e-02       1.805076192732e+04 
       3.368205439382e-02       1.797604776137e+04 
       3.383672110406e-02       1.790136417234e+04 
       3.399201408446e-02       1.782665684361e+04 
       3.414795087920e-02       1.775195342608e+04 
       3.430454964648e-02       1.767780116443e+04 
       3.446182918604e-02       1.760314357723e+04 
       3.461980896827e-02       1.752849232364e+04 
       3.477850916483e-02       1.745384865541e+04 
       3.493795068120e-02       1.737924269453e+04 
       3.509815519100e-02       1.730463806713e+04 
       3.525914517238e-02       1.723006057979e+04 
       3.542094394660e-02       1.715552330881e+04 
       3.558357571890e-02       1.708098740241e+04 
       3.574706562186e-02       1.700650704333e+04 
       3.591143976147e-02       1.693203594971e+04 
       3.607672526605e-02       1.685759329663e+04 
       3.624295033824e-02       1.678319365229e+04 
       3.641014431043e-02       1.670881910929e+04 
       3.657833770360e-02       1.663471506526e+04 
       3.674756229022e-02       1.656040228447e+04 
       3.691785116118e-02       1.648613901175e+04 
       3.708923879732e-02       1.641188367308e+04 
       3.726176114578e-02       1.633767011994e+04 
       3.743545570170e-02       1.626349887061e+04 
       3.761036159558e-02       1.618934070989e+04 
       3.778651968691e-02       1.611523061685e+04 
       3.796397266446e-02       1.604112664631e+04 
       3.814276515400e-02       1.596705576577e+04 
       3.832294383392e-02       1.589302076930e+04 
       3.850455755958e-02       1.581898260980e+04 
       3.868765749714e-02       1.574499029731e+04 
       3.887229726772e-02       1.567100373981e+04 
       3.905853310290e-02       1.559750661543e+04 
       3.924642401263e-02       1.552354590801e+04 
       3.943603196674e-02       1.544960863156e+04 
       3.962742209129e-02       1.537566824114e+04 
       3.982066288146e-02       1.530173011649e+04 
       4.001582643241e-02       1.522779166272e+04 
       4.021298869007e-02       1.515382590095e+04 
       4.041222972391e-02       1.507986289704e+04 
       4.061363402409e-02       1.500586575453e+04 
       4.081729082550e-02       1.493184187938e+04 
       4.102329446167e-02       1.485779380978e+04 
       4.123174475200e-02       1.478370757394e+04 
       4.144274742588e-02       1.470955309652e+04 
       4.165641458812e-02       1.463557260003e+04 
       4.187286523054e-02       1.456131257881e+04 
       4.209222579515e-02       1.448696316484e+04 
       4.231463079528e-02       1.441255114223e+04 
       4.254022350185e-02       1.433802101234e+04 
       4.276915670306e-02       1.426340682680e+04 
       4.300159354694e-02       1.418864908358e+04 
       4.323770847770e-02       1.411377142964e+04 
       4.347768827850e-02       1.403874509991e+04 
       4.372173323527e-02       1.396356387583e+04 
       4.397005843846e-02       1.388818132214e+04 
       4.422289524257e-02       1.381263053409e+04 
       4.448049290648e-02       1.373725818675e+04 
       4.474312044161e-02       1.366126421002e+04 
       4.501106869972e-02       1.358499998913e+04 
       4.528465273778e-02       1.350847493288e+04 
       4.556421450424e-02       1.343162401292e+04 
       4.585012589952e-02       1.335446241629e+04 
       4.614279227315e-02       1.327691954013e+04 
       4.644265643304e-02       1.319900386813e+04 
       4.675020325671e-02       1.312065890909e+04 
       4.706596501334e-02       1.304182970777e+04 
       4.739052752835e-02       1.296251597040e+04 
       4.772453735021e-02       1.288283386145e+04 
       4.806871011521e-02       1.280236410838e+04 
       4.842384034929e-02       1.272122584078e+04 
       4.879081300225e-02       1.263936868460e+04 
       4.917061707891e-02       1.255672593124e+04 
       4.956436182048e-02       1.247321886012e+04 
       4.997329600140e-02       1.238873517625e+04 
       5.039883104949e-02       1.230320268719e+04 
       5.084256887894e-02       1.221651040963e+04 
       5.130633555731e-02       1.212890335270e+04 
       5.179222222260e-02       1.203945699664e+04 
       5.230263503992e-02       1.194839436353e+04 
       5.284035645646e-02       1.185547790435e+04 
       5.340862059289e-02       1.176048197499e+04 
       5.401120630400e-02       1.166309772582e+04 
       5.465255223124e-02       1.156314863005e+04 
       5.533789897293e-02       1.145981678564e+04 
       5.607346410627e-02       1.135273037368e+04 
       5.686665573772e-02       1.124116603310e+04 
       5.772632855749e-02       1.112422745677e+04 
       5.866308109722e-02       1.100112360160e+04 
       5.968958042904e-02       1.086957820216e+04 
