# Matter power spectrum P(k) at redshift z=0
# for k=1.05321e-05 to 1.4771 h/Mpc,
# number of wavenumbers equal to 615
#    1:k (h/Mpc)              2:P (Mpc/h)^3        
       1.053207135887e-05       4.698802202961e+01 
       2.347678633603e-05       1.020176607571e+02 
       3.646755676761e-05       1.561990776696e+02 
       4.953968339449e-05       2.100677186764e+02 
       6.272905730712e-05       2.639385008567e+02 
       7.607248314028e-05       3.180518011742e+02 
       8.960801271004e-05       3.726107837096e+02 
       1.033752935702e-04       4.278190424731e+02 
       1.174159370004e-04       4.838607152057e+02 
       1.317739099701e-04       5.409252842765e+02 
       1.464959556300e-04       5.992043057216e+02 
       1.616320468122e-04       6.589010328336e+02 
       1.772358768301e-04       7.202166053437e+02 
       1.933653914705e-04       7.833789047771e+02 
       2.100833653645e-04       8.486360021191e+02 
       2.274580247750e-04       9.162213718206e+02 
       2.455637170547e-04       9.864195001852e+02 
       2.644816243947e-04       1.059604483731e+03 
       2.843005156898e-04       1.135945462686e+03 
       3.051175250571e-04       1.216004975072e+03 
       3.270389383553e-04       1.299884998026e+03 
       3.501809595306e-04       1.388188252489e+03 
       3.746704163911e-04       1.481302472575e+03 
       4.006453502154e-04       1.579601898076e+03 
       4.282554155180e-04       1.683968878144e+03 
       4.576619959385e-04       1.794325275098e+03 
       4.890379211485e-04       1.912315731269e+03 
       5.225666507057e-04       2.036980523540e+03 
       5.584407784714e-04       2.170065799620e+03 
       5.968597119024e-04       2.311688341901e+03 
       6.380264021377e-04       2.462509517785e+03 
       6.821430515829e-04       2.623566000771e+03 
       7.294058119424e-04       2.794528267546e+03 
       7.799986081953e-04       2.976541776183e+03 
       8.340863742226e-04       3.169881855125e+03 
       8.918081426825e-04       3.374711811572e+03 
       9.532705623805e-04       3.591036231246e+03 
       1.018542481906e-03       3.818863956120e+03 
       1.087651205384e-03       4.058215354896e+03 
       1.160580881032e-03       4.308247086750e+03 
       1.237273241832e-03       4.568792752255e+03 
       1.317630625764e-03       4.838964971718e+03 
       1.401520923797e-03       5.118090390033e+03 
       1.477104874446e-03       5.366920903398e+03 
       1.488783896906e-03       5.405125093239e+03 
       1.579238205896e-03       5.699339210921e+03 
       1.672688514496e-03       5.999594156169e+03 
       1.768932133438e-03       6.304959970814e+03 
       1.867764831262e-03       6.614541402638e+03 
       1.968985605982e-03       6.927583075453e+03 
       2.072400359679e-03       7.242895336360e+03 
       2.177824528995e-03       7.559928096422e+03 
       2.285084794437e-03       7.877973292182e+03 
       2.394020025301e-03       8.196336706182e+03 
       2.504481623677e-03       8.514388660159e+03 
       2.616333420012e-03       8.831585918535e+03 
       2.729451252251e-03       9.154492393566e+03 
       2.843722336555e-03       9.522040647321e+03 
       2.959044513996e-03       9.811543391851e+03 
       3.075325436471e-03       9.965573259500e+03 
       3.192481737368e-03       1.037307741196e+04 
       3.310438218310e-03       1.065575371693e+04 
       3.429127072395e-03       1.115822153138e+04 
       3.548487156208e-03       1.123897452768e+04 
       3.668463317002e-03       1.154606338034e+04 
       3.789005777345e-03       1.205991887526e+04 
       3.910069576745e-03       1.216557251177e+04 
       4.031614067989e-03       1.247705857921e+04 
       4.153602464881e-03       1.260565364349e+04 
       4.276001437482e-03       1.311561383043e+04 
       4.398780750731e-03       1.325688352937e+04 
       4.521912942362e-03       1.356004538138e+04 
       4.645373036147e-03       1.370785675810e+04 
       4.769138286764e-03       1.416951031400e+04 
       4.893187952858e-03       1.432961147104e+04 
       5.017503095169e-03       1.463285357565e+04 
       5.142066396909e-03       1.479155532123e+04 
       5.266862003839e-03       1.520659282500e+04 
       5.391875381810e-03       1.537256139176e+04 
       5.517093189744e-03       1.565312923166e+04 
       5.642503166273e-03       1.582039797695e+04 
       5.768094028485e-03       1.599895873817e+04 
       5.893855381361e-03       1.634793215921e+04 
       6.019777636705e-03       1.652131876988e+04 
       6.145851940473e-03       1.676840381701e+04 
       6.272070107553e-03       1.693913283520e+04 
       6.398424563173e-03       1.711240064443e+04 
       6.524908290179e-03       1.740855074173e+04 
       6.651514781553e-03       1.757859082910e+04 
       6.778237997586e-03       1.774285959636e+04 
       6.905072327207e-03       1.796237739223e+04 
       7.032012553019e-03       1.812606107941e+04 
       7.159053819651e-03       1.829167630620e+04 
       7.286191605069e-03       1.853256006392e+04 
       7.413421694548e-03       1.869338568075e+04 
       7.540740157025e-03       1.884590508807e+04 
       7.668143323590e-03       1.900077371018e+04 
       7.795627767897e-03       1.918653069373e+04 
       7.923190288315e-03       1.933468197925e+04 
       8.050827891628e-03       1.948066053461e+04 
       8.178537778148e-03       1.967979192841e+04 
       8.306317328104e-03       1.981925856572e+04 
       8.434164089173e-03       1.995695938548e+04 
       8.562075765057e-03       2.009343182152e+04 
       8.690050205004e-03       2.024662019697e+04 
       8.818085394187e-03       2.037641003906e+04 
       8.946179444859e-03       2.050237659132e+04 
       9.074330588217e-03       2.062788473304e+04 
       9.202537166913e-03       2.078608016235e+04 
       9.330797628154e-03       2.090539731160e+04 
       9.459110517333e-03       2.101930955753e+04 
       9.587474472157e-03       2.113064289960e+04 
       9.715888217219e-03       2.125723737545e+04 
       9.844350558985e-03       2.136357968000e+04 
       9.972860381151e-03       2.146729840480e+04 
       1.010141664035e-02       2.156966590306e+04 
       1.023001836218e-02       2.166765161403e+04 
       1.035866463752e-02       2.179110799041e+04 
       1.048735461909e-02       2.188438114086e+04 
       1.061608751830e-02       2.197526575789e+04 
       1.074486260234e-02       2.206259417340e+04 
       1.087367919136e-02       2.215938316480e+04 
       1.100253665604e-02       2.224176858024e+04 
       1.113143441514e-02       2.232148436878e+04 
       1.126037193335e-02       2.239919659425e+04 
       1.138934871928e-02       2.247340922717e+04 
       1.151836432349e-02       2.256644599750e+04 
       1.164741833680e-02       2.263609674466e+04 
       1.177651038861e-02       2.270341414537e+04 
       1.190564014539e-02       2.276797306443e+04 
       1.203480730925e-02       2.283002550031e+04 
       1.216401161664e-02       2.289108510468e+04 
       1.229325283711e-02       2.295787299136e+04 
       1.242253077218e-02       2.301315179666e+04 
       1.255184525426e-02       2.306570698038e+04 
       1.268119614570e-02       2.311580060529e+04 
       1.281058333786e-02       2.316418003447e+04 
       1.294000675025e-02       2.322721154134e+04 
       1.306946632978e-02       2.327104381163e+04 
       1.319896205001e-02       2.331267467906e+04 
       1.332849391050e-02       2.335187088345e+04 
       1.345806193617e-02       2.338927868657e+04 
       1.358766617675e-02       2.342450999885e+04 
       1.371730670626e-02       2.346503857056e+04 
       1.384698362252e-02       2.349606176328e+04 
       1.397669704671e-02       2.352446237027e+04 
       1.410644712299e-02       2.355095602397e+04 
       1.423623401812e-02       2.357628598814e+04 
       1.436605792116e-02       2.359860999405e+04 
       1.449591904315e-02       2.361930888357e+04 
       1.462581761686e-02       2.365310508294e+04 
       1.475575389659e-02       2.367050036728e+04 
       1.477104874446e-02       2.367231672246e+04 
       1.488572815792e-02       2.368561611994e+04 
       1.501574069757e-02       2.369930409929e+04 
       1.514579183326e-02       2.371060479993e+04 
       1.527588190356e-02       2.371978454882e+04 
       1.540601126783e-02       2.373444529916e+04 
       1.553618030613e-02       2.374090026282e+04 
       1.566638941918e-02       2.374531596765e+04 
       1.579663902834e-02       2.374816976627e+04 
       1.592692957557e-02       2.374903615679e+04 
       1.605726152350e-02       2.374775178764e+04 
       1.618763535545e-02       2.374533742543e+04 
       1.631805157546e-02       2.374155066122e+04 
       1.644851070840e-02       2.374871526824e+04 
       1.657901330005e-02       2.374127544793e+04 
       1.670955991721e-02       2.373290956551e+04 
       1.684015114786e-02       2.372259095476e+04 
       1.697078760126e-02       2.371112932378e+04 
       1.710146990818e-02       2.369777180845e+04 
       1.723219872103e-02       2.368248033647e+04 
       1.736297471409e-02       2.367259172016e+04 
       1.749379858373e-02       2.365485795600e+04 
       1.762467104864e-02       2.363608799126e+04 
       1.775559285008e-02       2.361515724068e+04 
       1.788656475215e-02       2.359347811012e+04 
       1.801758754208e-02       2.357019008643e+04 
       1.814866203055e-02       2.354531770469e+04 
       1.827978905196e-02       2.351955913088e+04 
       1.841096946481e-02       2.349228188519e+04 
       1.854220415207e-02       2.347578692124e+04 
       1.867349402147e-02       2.344584822044e+04 
       1.880484000599e-02       2.341528596145e+04 
       1.893624306415e-02       2.338309904273e+04 
       1.906770418056e-02       2.334974382678e+04 
       1.919922436623e-02       2.331562381973e+04 
       1.933080465913e-02       2.327962946494e+04 
       1.946244612460e-02       2.324292397752e+04 
       1.959414985587e-02       2.321063959733e+04 
       1.972591697456e-02       2.317192414746e+04 
       1.985774863121e-02       2.313160620182e+04 
       1.998964600584e-02       2.309086060780e+04 
       2.012161030850e-02       2.304855840301e+04 
       2.025364277988e-02       2.300533554470e+04 
       2.038574469188e-02       2.296122874064e+04 
       2.051791734829e-02       2.291567625094e+04 
       2.065016208540e-02       2.286975441442e+04 
       2.078248027267e-02       2.282288111604e+04 
       2.091487331345e-02       2.278523152264e+04 
       2.104734264569e-02       2.273675582961e+04 
       2.117988974265e-02       2.268673989368e+04 
       2.131251611369e-02       2.263639317427e+04 
       2.144522330506e-02       2.258489760800e+04 
       2.157801290068e-02       2.253245236720e+04 
       2.171088652302e-02       2.247938052304e+04 
       2.184384583393e-02       2.242552449011e+04 
       2.197689253554e-02       2.237052459281e+04 
       2.211002837119e-02       2.232015786641e+04 
       2.224325512638e-02       2.226366936779e+04 
       2.237657462972e-02       2.220683283370e+04 
       2.250998875397e-02       2.214883999199e+04 
       2.264349941705e-02       2.209065309257e+04 
       2.277710858314e-02       2.203104996765e+04 
       2.291081826378e-02       2.197147963090e+04 
       2.304463051899e-02       2.191046676202e+04 
       2.317854745845e-02       2.184948339948e+04 
       2.331257124276e-02       2.178779794887e+04 
       2.344670408461e-02       2.172486030771e+04 
       2.358094825013e-02       2.167182001132e+04 
       2.371530606022e-02       2.160801992427e+04 
       2.384977989188e-02       2.154413020636e+04 
       2.398437217967e-02       2.147904814008e+04 
       2.411908541715e-02       2.141403349642e+04 
       2.425392215840e-02       2.134786721612e+04 
       2.438888501957e-02       2.128167480031e+04 
       2.452397668047e-02       2.121484044635e+04 
       2.465919988629e-02       2.114729006338e+04 
       2.479455744922e-02       2.107936487653e+04 
       2.493005225031e-02       2.101099831987e+04 
       2.506568724123e-02       2.094661703442e+04 
       2.520146544620e-02       2.087759001531e+04 
       2.533738996391e-02       2.080779201635e+04 
       2.547346396957e-02       2.073780085336e+04 
       2.560969071694e-02       2.066695683804e+04 
       2.574607354053e-02       2.059619612019e+04 
       2.588261585780e-02       2.052507140154e+04 
       2.601932117147e-02       2.045304915865e+04 
       2.615619307190e-02       2.038112667442e+04 
       2.629323523954e-02       2.030854345601e+04 
       2.643045144746e-02       2.023564169237e+04 
       2.656784556406e-02       2.016268162765e+04 
       2.670542155569e-02       2.009805352420e+04 
       2.684318348955e-02       2.002457658400e+04 
       2.698113553660e-02       1.995041417763e+04 
       2.711928197456e-02       1.987645040347e+04 
       2.725762719108e-02       1.980171624607e+04 
       2.739617568696e-02       1.972710469468e+04 
       2.753493207954e-02       1.965211290078e+04 
       2.767390110621e-02       1.957701597420e+04 
       2.781308762796e-02       1.950125962366e+04 
       2.795249663323e-02       1.942578159182e+04 
       2.809213324174e-02       1.934958436226e+04 
       2.823200270857e-02       1.927369173481e+04 
       2.837211042832e-02       1.920130741804e+04 
       2.851246193954e-02       1.912485212234e+04 
       2.865306292917e-02       1.904824948772e+04 
       2.879391923731e-02       1.897118797885e+04 
       2.893503686209e-02       1.889437983076e+04 
       2.907642196473e-02       1.881729378683e+04 
       2.921808087486e-02       1.873990960437e+04 
       2.936002009600e-02       1.866229079263e+04 
       2.950224631126e-02       1.858498590563e+04 
       2.964476638933e-02       1.850696848363e+04 
       2.978758739067e-02       1.842924584465e+04 
       2.993071657393e-02       1.835127344392e+04 
       3.007416140270e-02       1.827322248402e+04 
       3.021792955254e-02       1.820301834238e+04 
       3.036202891825e-02       1.812471596866e+04 
       3.050646762150e-02       1.804669375424e+04 
       3.065125401878e-02       1.796846685105e+04 
       3.079639670972e-02       1.789017828245e+04 
       3.094190454572e-02       1.781160066140e+04 
       3.108778663899e-02       1.773336056631e+04 
       3.123405237206e-02       1.765466321142e+04 
       3.138071140758e-02       1.757605626753e+04 
       3.152777369872e-02       1.749763939962e+04 
       3.167524949993e-02       1.741883910940e+04 
       3.182314937828e-02       1.734041458082e+04 
       3.197148422528e-02       1.726155452817e+04 
       3.212026526928e-02       1.718285876707e+04 
       3.226950408847e-02       1.710794998408e+04 
       3.241921262451e-02       1.702908440241e+04 
       3.256940319678e-02       1.695057872141e+04 
       3.272008851743e-02       1.687192983372e+04 
       3.287128170703e-02       1.679343437085e+04 
       3.302299631115e-02       1.671456397552e+04 
       3.317524631772e-02       1.663609166728e+04 
       3.332804617524e-02       1.655751579815e+04 
       3.348141081201e-02       1.647885344088e+04 
       3.363535565632e-02       1.640042213074e+04 
       3.378989665768e-02       1.632163623978e+04 
       3.394505030927e-02       1.624327662775e+04 
       3.410083367152e-02       1.616481108555e+04 
       3.425726439700e-02       1.608614931923e+04 
       3.441436075671e-02       1.601482148103e+04 
       3.457214166778e-02       1.593657767659e+04 
       3.473062672279e-02       1.585843446410e+04 
       3.488983622072e-02       1.578010331292e+04 
       3.504979119970e-02       1.570211010793e+04 
       3.521051347167e-02       1.562400543755e+04 
       3.537202565908e-02       1.554585673030e+04 
       3.553435123374e-02       1.546804942809e+04 
       3.569751455812e-02       1.538989285734e+04 
       3.586154092905e-02       1.531215643249e+04 
       3.602645662418e-02       1.523432415003e+04 
       3.619228895139e-02       1.515634711202e+04 
       3.635906630119e-02       1.507876538716e+04 
       3.652681820264e-02       1.500112393662e+04 
       3.669557538281e-02       1.492671489696e+04 
       3.686536983016e-02       1.484904378787e+04 
       3.703623486213e-02       1.477172041844e+04 
       3.720820519734e-02       1.469422167998e+04 
       3.738131703266e-02       1.461676093458e+04 
       3.755560812569e-02       1.453960790921e+04 
       3.773111788294e-02       1.446215048550e+04 
       3.790788745434e-02       1.438508647974e+04 
       3.808595983462e-02       1.430781805727e+04 
       3.826537997195e-02       1.423055171603e+04 
       3.844619488481e-02       1.415360119195e+04 
       3.862845378759e-02       1.407632875410e+04 
       3.881220822571e-02       1.399931166386e+04 
       3.899751222133e-02       1.392226813306e+04 
       3.918442243046e-02       1.385126188432e+04 
       3.937299831260e-02       1.377422661476e+04 
       3.956330231420e-02       1.369726772088e+04 
       3.975540006714e-02       1.362042413734e+04 
       3.994936060388e-02       1.354345660165e+04 
       4.014525659091e-02       1.346666814901e+04 
       4.034316458228e-02       1.338959111417e+04 
       4.054316529551e-02       1.331274363204e+04 
       4.074534391208e-02       1.323576615307e+04 
       4.094979040517e-02       1.315858981909e+04 
       4.115659989782e-02       1.308169202452e+04 
       4.136587305461e-02       1.300466176581e+04 
       4.157771651098e-02       1.292742923002e+04 
       4.179224334428e-02       1.285277714101e+04 
       4.200957359164e-02       1.277563069950e+04 
       4.222983482023e-02       1.269810035144e+04 
       4.245316275624e-02       1.262073483484e+04 
       4.267970198001e-02       1.254304365453e+04 
       4.290960669563e-02       1.246541941493e+04 
       4.314304158466e-02       1.238745215997e+04 
       4.338018275508e-02       1.230938489862e+04 
       4.362121879839e-02       1.223119317182e+04 
       4.386635196952e-02       1.215287360489e+04 
       4.411579950707e-02       1.207401746802e+04 
       4.436979511379e-02       1.199526770446e+04 
       4.462859062089e-02       1.191591013074e+04 
       4.489245786378e-02       1.184144586412e+04 
       4.516169080142e-02       1.176167914254e+04 
       4.543660791777e-02       1.168171686831e+04 
       4.571755495032e-02       1.160119515060e+04 
       4.600490799961e-02       1.152049099042e+04 
       4.629907708358e-02       1.143911212056e+04 
       4.660051021371e-02       1.135744363711e+04 
       4.690969808471e-02       1.127514368244e+04 
       4.722717948916e-02       1.119216084942e+04 
       4.755354759139e-02       1.110883129881e+04 
       4.788945722439e-02       1.102681533362e+04 
       4.823563340957e-02       1.094205068290e+04 
       4.859288134448e-02       1.085634909602e+04 
       4.896209816056e-02       1.076982070326e+04 
       4.934428682471e-02       1.068238478651e+04 
       4.974057264907e-02       1.059395267059e+04 
       5.015222298858e-02       1.050412881020e+04 
       5.058067085242e-02       1.041313247792e+04 
       5.102754334193e-02       1.032082157109e+04 
       5.149469606576e-02       1.023101825162e+04 
       5.198425498566e-02       1.013545386325e+04 
       5.249866752966e-02       1.003812248466e+04 
       5.304076529042e-02       9.938546889749e+03 
       5.361384121891e-02       9.836557507787e+03 
       5.422174493139e-02       9.731934361972e+03 
       5.486900054612e-02       9.625850413800e+03 
       5.556095226421e-02       9.514529625315e+03 
       5.630394348003e-02       9.399041545537e+03 
       5.710553503960e-02       9.278746613358e+03 
       5.797476631054e-02       9.152893831311e+03 
       5.892245691579e-02       9.023374096544e+03 
       5.996153347753e-02       8.882721914417e+03 
