# total [l(l+1)/2pi] C_l's (units: [microK]^2)
# for l=2 to 3100, i.e. number of multipoles equal to 3099
#
# -> if you don't want to see such a header, set 'headers' to 'no' in input file
# -> for CMB lensing (d), these are C_l^dd for the deflection field.
#    Remember the conversion factors:
#    C_l^dd (deflection) = l(l+1) C_l^phi-phi
#    C_l^gg (shear/convergence) = 1/4 (l(l+1))^2 C_l^phi-phi
#
# 1:l     2:TT                     3:EE                     4:BB                     5:TE                     6:dd                     7:dT                     8:dE                 
    2       1.027632769715e+03       3.335820400716e-02       0.000000000000e+00       2.699755070164e+00       4.878036057386e-08       3.035630163475e-03      -1.278342820746e-05 
    3       9.717531713249e+02       4.453816862235e-02       0.000000000000e+00       3.086523694636e+00       6.099754415471e-08       3.053479469360e-03      -1.401458250468e-05 
    4       9.187706693644e+02       4.021118524478e-02       0.000000000000e+00       2.926696512217e+00       7.094286615450e-08       2.987153356954e-03      -1.224006166247e-05 
    5       8.788343934095e+02       2.804623468784e-02       0.000000000000e+00       2.524363504616e+00       7.954350798908e-08       2.891049925471e-03      -8.781872708866e-06 
    6       8.512275513762e+02       1.624929985715e-02       0.000000000000e+00       2.055536334316e+00       8.701772925150e-08       2.783802567780e-03      -4.778467556282e-06 
    7       8.331966256154e+02       8.775421983772e-03       0.000000000000e+00       1.625151626377e+00       9.355917341150e-08       2.674469169769e-03      -1.162325520776e-06 
    8       8.225353344263e+02       5.411903242430e-03       0.000000000000e+00       1.282681609437e+00       9.938126431629e-08       2.568360705358e-03       1.451029476458e-06 
    9       8.173761780890e+02       4.233385837601e-03       0.000000000000e+00       1.043323326656e+00       1.046485270393e-07       2.468364342349e-03       2.798401890834e-06 
   10       8.161511204960e+02       3.657650781336e-03       0.000000000000e+00       9.014820940281e-01       1.094304712341e-07       2.375344587799e-03       2.943856021656e-06 
   11       8.182035701695e+02       3.106001619169e-03       0.000000000000e+00       8.396657170047e-01       1.105196764909e-07       2.297128330968e-03       2.202842962725e-06 
   12       8.226402879936e+02       2.646076919556e-03       0.000000000000e+00       8.357559288556e-01       1.141577079801e-07       2.209851557197e-03       9.911489425761e-07 
   13       8.289439513737e+02       2.434614855294e-03       0.000000000000e+00       8.685075057080e-01       1.174191811106e-07       2.133746560616e-03      -2.538345517745e-07 
   14       8.365852697285e+02       2.465080931879e-03       0.000000000000e+00       9.207969912474e-01       1.203454039578e-07       2.054360782552e-03      -1.221305574950e-06 
   15       8.456113870511e+02       2.628952656042e-03       0.000000000000e+00       9.812143937825e-01       1.229713414294e-07       1.982643522694e-03      -1.721884286074e-06 
   16       8.556619158406e+02       2.856839328493e-03       0.000000000000e+00       1.043022455133e+00       1.253283516891e-07       1.915718315068e-03      -1.742997957563e-06 
   17       8.665655352608e+02       3.167756000273e-03       0.000000000000e+00       1.103335131397e+00       1.274428118964e-07       1.851956030460e-03      -1.400812722855e-06 
   18       8.780685278978e+02       3.622352855543e-03       0.000000000000e+00       1.163204535484e+00       1.292873198758e-07       1.789949614208e-03      -8.947306672045e-07 
   19       8.902529450893e+02       4.244764581665e-03       0.000000000000e+00       1.224560134719e+00       1.310316944342e-07       1.731842068155e-03      -3.901103579393e-07 
   20       9.029285157181e+02       5.037702181471e-03       0.000000000000e+00       1.289322762150e+00       1.325360510107e-07       1.677154803747e-03      -6.324001073986e-08 
   21       9.161595591147e+02       5.987829610915e-03       0.000000000000e+00       1.358252457426e+00       1.338878665594e-07       1.626099993306e-03       2.553675646665e-08 
   22       9.298551417078e+02       7.074217733980e-03       0.000000000000e+00       1.431134948884e+00       1.350623891383e-07       1.576647235075e-03      -1.119805825481e-07 
   23       9.439839806600e+02       8.299954284125e-03       0.000000000000e+00       1.505748317875e+00       1.361298747311e-07       1.529086640039e-03      -4.114834783164e-07 
   24       9.583969087337e+02       9.673300108015e-03       0.000000000000e+00       1.578843097490e+00       1.370419497413e-07       1.483166727027e-03      -7.606408820411e-07 
   25       9.731931981746e+02       1.119147271251e-02       0.000000000000e+00       1.648178601472e+00       1.378532019692e-07       1.440114699981e-03      -1.066859674843e-06 
   26       9.884128309616e+02       1.284905910663e-02       0.000000000000e+00       1.711639754565e+00       1.385420404351e-07       1.400401995808e-03      -1.241292738410e-06 
   27       1.003945717209e+03       1.465479282246e-02       0.000000000000e+00       1.767415604977e+00       1.391354243757e-07       1.363055508171e-03      -1.265869354845e-06 
   28       1.019580477759e+03       1.662266671881e-02       0.000000000000e+00       1.814035282271e+00       1.395970627066e-07       1.325889522262e-03      -1.160152077975e-06 
   29       1.035390347903e+03       1.876639423886e-02       0.000000000000e+00       1.851728262010e+00       1.400002005100e-07       1.289540494825e-03      -9.665307280230e-07 
   30       1.051464018990e+03       2.110079435572e-02       0.000000000000e+00       1.881570801235e+00       1.403653366772e-07       1.255079085293e-03      -7.561081523024e-07 
   31       1.067812640338e+03       2.364035841194e-02       0.000000000000e+00       1.904782050004e+00       1.406123882780e-07       1.222889129106e-03      -6.130910039794e-07 
   32       1.084451833821e+03       2.639205160194e-02       0.000000000000e+00       1.921449861971e+00       1.407861846073e-07       1.192917573125e-03      -5.593382676962e-07 
   33       1.101330259281e+03       2.935969873932e-02       0.000000000000e+00       1.931339641114e+00       1.409150843418e-07       1.164214602339e-03      -5.919285657377e-07 
   34       1.118349619802e+03       3.254664883351e-02       0.000000000000e+00       1.934108919469e+00       1.409626652611e-07       1.135306971024e-03      -6.974362352298e-07 
   35       1.135547058352e+03       3.595898252376e-02       0.000000000000e+00       1.928915994913e+00       1.409607958773e-07       1.106616241604e-03      -8.436617543143e-07 
   36       1.152964252146e+03       3.960334447707e-02       0.000000000000e+00       1.914657254599e+00       1.409162788318e-07       1.079029953277e-03      -9.806230799743e-07 
   37       1.170606671499e+03       4.348603753200e-02       0.000000000000e+00       1.890224951139e+00       1.407900047982e-07       1.053200833483e-03      -1.054649734582e-06 
   38       1.188488870626e+03       4.761289927214e-02       0.000000000000e+00       1.855082188170e+00       1.406203713855e-07       1.029338051783e-03      -1.061083984345e-06 
   39       1.206595420046e+03       5.198933865186e-02       0.000000000000e+00       1.808871946355e+00       1.404431239396e-07       1.007205945936e-03      -1.015271659427e-06 
   40       1.224862699749e+03       5.662033304322e-02       0.000000000000e+00       1.751264979029e+00       1.402449769959e-07       9.860725952252e-04      -9.408575352286e-07 
   41       1.243212454444e+03       6.151052238842e-02       0.000000000000e+00       1.682034179137e+00       1.399788893981e-07       9.649948926078e-04      -8.653767190521e-07 
   42       1.261677018435e+03       6.666459627469e-02       0.000000000000e+00       1.601303224235e+00       1.396674442820e-07       9.440710168462e-04      -8.013701773435e-07 
   43       1.280306858536e+03       7.208698542516e-02       0.000000000000e+00       1.509381374614e+00       1.393360703499e-07       9.236392659637e-04      -7.581796746643e-07 
   44       1.299133706730e+03       7.778173082192e-02       0.000000000000e+00       1.406703956075e+00       1.389774617655e-07       9.039307556564e-04      -7.469426282704e-07 
   45       1.318173246099e+03       8.375254129157e-02       0.000000000000e+00       1.293650539650e+00       1.385638395980e-07       8.850751092116e-04      -7.771319847331e-07 
   46       1.337439126235e+03       9.000303351012e-02       0.000000000000e+00       1.169919438361e+00       1.381194189837e-07       8.671833058520e-04      -8.438959877529e-07 
   47       1.356929528603e+03       9.653653002616e-02       0.000000000000e+00       1.034977197916e+00       1.376724388976e-07       8.502581331657e-04      -9.354024209444e-07 
   48       1.376620925520e+03       1.033559731106e-01       0.000000000000e+00       8.882263723802e-01       1.372308298106e-07       8.341429127745e-04      -1.035533356772e-06 
   49       1.396466235224e+03       1.104639093892e-01       0.000000000000e+00       7.290011406750e-01       1.367760484447e-07       8.184960242523e-04      -1.123390321307e-06 
   50       1.416415722857e+03       1.178623329515e-01       0.000000000000e+00       5.566882188113e-01       1.362751245870e-07       8.029166969637e-04      -1.178995292399e-06 
   51       1.436490671928e+03       1.255522001230e-01       0.000000000000e+00       3.711384582316e-01       1.357421108200e-07       7.874485602883e-04      -1.204418563891e-06 
   52       1.456726521064e+03       1.335337564198e-01       0.000000000000e+00       1.723593940350e-01       1.351972112066e-07       7.722320076641e-04      -1.210245595587e-06 
   53       1.477151109729e+03       1.418066450569e-01       0.000000000000e+00      -3.959880914509e-02       1.346474356133e-07       7.573608857591e-04      -1.210402140137e-06 
   54       1.497783903693e+03       1.503698849204e-01       0.000000000000e+00      -2.646418443719e-01       1.340829767771e-07       7.428738872470e-04      -1.222500094377e-06 
   55       1.518637454313e+03       1.592223513230e-01       0.000000000000e+00      -5.026872762570e-01       1.334856289790e-07       7.287773125850e-04      -1.263415598655e-06 
   56       1.539723975282e+03       1.683644085877e-01       0.000000000000e+00      -7.538523430681e-01       1.328689832154e-07       7.151449892568e-04      -1.333212995876e-06 
   57       1.561049043032e+03       1.777966444503e-01       0.000000000000e+00      -1.018310158964e+00       1.322506863437e-07       7.020392252107e-04      -1.425934490290e-06 
   58       1.582608833531e+03       1.875194004255e-01       0.000000000000e+00      -1.296236987590e+00       1.316396992971e-07       6.894758884003e-04      -1.533703441036e-06 
   59       1.604389434779e+03       1.975327693681e-01       0.000000000000e+00      -1.587812970612e+00       1.310340671027e-07       6.774176744944e-04      -1.646538287352e-06 
   60       1.626366159313e+03       2.078365930348e-01       0.000000000000e+00      -1.893222856237e+00       1.304184852675e-07       6.657670867280e-04      -1.752159777754e-06 
   61       1.648513992281e+03       2.184297414885e-01       0.000000000000e+00      -2.212597190486e+00       1.297724399768e-07       6.544082426584e-04      -1.838697363105e-06 
   62       1.670843231484e+03       2.293077678179e-01       0.000000000000e+00      -2.545818817607e+00       1.291054497588e-07       6.433661039727e-04      -1.904353223282e-06 
   63       1.693370663552e+03       2.404647202720e-01       0.000000000000e+00      -2.892674041722e+00       1.284326419347e-07       6.326874789626e-04      -1.950615394719e-06 
   64       1.716108806723e+03       2.518937892394e-01       0.000000000000e+00      -3.252907193920e+00       1.277641740924e-07       6.223932013414e-04      -1.979692359235e-06 
   65       1.739065576672e+03       2.635872820233e-01       0.000000000000e+00      -3.626219471710e+00       1.271040039803e-07       6.124746501595e-04      -1.994581395407e-06 
   66       1.762243952329e+03       2.755365976172e-01       0.000000000000e+00      -4.012267778479e+00       1.264485559793e-07       6.028901339022e-04      -1.999139229401e-06 
   67       1.785641641706e+03       2.877322014791e-01       0.000000000000e+00      -4.410663562945e+00       1.257852808616e-07       5.935611387707e-04      -1.998154985269e-06 
   68       1.809255052382e+03       3.001646391685e-01       0.000000000000e+00      -4.821041365862e+00       1.250988806305e-07       5.844026207738e-04      -1.996302103087e-06 
   69       1.833092884172e+03       3.128278721434e-01       0.000000000000e+00      -5.243283182916e+00       1.243966829108e-07       5.754336729305e-04      -1.994446522229e-06 
   70       1.857164703018e+03       3.257165756736e-01       0.000000000000e+00      -5.677337687685e+00       1.236905854379e-07       5.666932900076e-04      -1.992358273190e-06 
   71       1.881476659952e+03       3.388251611051e-01       0.000000000000e+00      -6.123155157932e+00       1.229895139459e-07       5.582075004474e-04      -1.989732695220e-06 
   72       1.906031267018e+03       3.521477772046e-01       0.000000000000e+00      -6.580688097850e+00       1.222987350938e-07       5.499877112501e-04      -1.986183659434e-06 
   73       1.930827173183e+03       3.656783115033e-01       0.000000000000e+00      -7.049891860319e+00       1.216191169129e-07       5.420289936078e-04      -1.981236574840e-06 
   74       1.955858940261e+03       3.794103916421e-01       0.000000000000e+00      -7.530725269152e+00       1.209463352624e-07       5.343083092938e-04      -1.974321177298e-06 
   75       1.981116818826e+03       3.933373867153e-01       0.000000000000e+00      -8.023151241342e+00       1.202700247782e-07       5.267826778029e-04      -1.964764101398e-06 
   76       2.006591253068e+03       4.074518927372e-01       0.000000000000e+00      -8.527088437313e+00       1.195783691458e-07       5.194059232135e-04      -1.952040267825e-06 
   77       2.032287839095e+03       4.217440777459e-01       0.000000000000e+00      -9.042254657236e+00       1.188759702255e-07       5.121885642817e-04      -1.936624454349e-06 
   78       2.058214699910e+03       4.362030359612e-01       0.000000000000e+00      -9.568295885102e+00       1.181707499329e-07       5.051507776298e-04      -1.919357470698e-06 
   79       2.084377873400e+03       4.508172678067e-01       0.000000000000e+00      -1.010483235150e+01       1.174686324596e-07       4.983042896106e-04      -1.901214972138e-06 
   80       2.110781185233e+03       4.655746706755e-01       0.000000000000e+00      -1.065145815165e+01       1.167731436264e-07       4.916514538151e-04      -1.883315714552e-06 
   81       2.137426121738e+03       4.804625296958e-01       0.000000000000e+00      -1.120774086346e+01       1.160849829734e-07       4.851842993120e-04      -1.866930009055e-06 
   82       2.164311702794e+03       4.954675084974e-01       0.000000000000e+00      -1.177322116556e+01       1.154015678821e-07       4.788835496172e-04      -1.853488376145e-06 
   83       2.191434354725e+03       5.105756399770e-01       0.000000000000e+00      -1.234741245532e+01       1.147165490263e-07       4.727176123945e-04      -1.844590399386e-06 
   84       2.218790154326e+03       5.257729159817e-01       0.000000000000e+00      -1.292983324641e+01       1.140228611535e-07       4.666541982761e-04      -1.841622858531e-06 
   85       2.246382266850e+03       5.410471889054e-01       0.000000000000e+00      -1.352011136905e+01       1.133242473510e-07       4.607008653175e-04      -1.844483868307e-06 
   86       2.274214513764e+03       5.563865698725e-01       0.000000000000e+00      -1.411789642393e+01       1.126265605097e-07       4.548726030550e-04      -1.852559497335e-06 
   87       2.302289025263e+03       5.717788586685e-01       0.000000000000e+00      -1.472282870512e+01       1.119342947449e-07       4.491795778410e-04      -1.865077056154e-06 
   88       2.330606153004e+03       5.872115445721e-01       0.000000000000e+00      -1.533453936894e+01       1.112503411445e-07       4.436266446612e-04      -1.881094304929e-06 
   89       2.359164382850e+03       6.026718071865e-01       0.000000000000e+00      -1.595265060298e+01       1.105757284901e-07       4.382128447884e-04      -1.899488394175e-06 
   90       2.387960247607e+03       6.181465172715e-01       0.000000000000e+00      -1.657677579503e+01       1.099093485975e-07       4.329308892749e-04      -1.918944538490e-06 
   91       2.416988239763e+03       6.336222375754e-01       0.000000000000e+00      -1.720651970204e+01       1.092476659248e-07       4.277666282805e-04      -1.937944423300e-06 
   92       2.446240724229e+03       6.490852236660e-01       0.000000000000e+00      -1.784147861907e+01       1.085844110960e-07       4.226985062393e-04      -1.954754344621e-06 
   93       2.475710328585e+03       6.645215783197e-01       0.000000000000e+00      -1.848123558455e+01       1.079131646913e-07       4.177055408233e-04      -1.967802612199e-06 
   94       2.505397714578e+03       6.799177394410e-01       0.000000000000e+00      -1.912534480415e+01       1.072367485666e-07       4.127945788135e-04      -1.976936808930e-06 
   95       2.535304819560e+03       6.952600674053e-01       0.000000000000e+00      -1.977334518570e+01       1.065600280408e-07       4.079781313198e-04      -1.982426693670e-06 
   96       2.565432430589e+03       7.105347009407e-01       0.000000000000e+00      -2.042476519370e+01       1.058871214605e-07       4.032661297285e-04      -1.984602593500e-06 
   97       2.595780131173e+03       7.257275600680e-01       0.000000000000e+00      -2.107912295008e+01       1.052212682952e-07       3.986656766997e-04      -1.983858936090e-06 
   98       2.626346248021e+03       7.408243490397e-01       0.000000000000e+00      -2.173592633505e+01       1.045646897420e-07       3.941807905228e-04      -1.980657858202e-06 
   99       2.657127797788e+03       7.558105592803e-01       0.000000000000e+00      -2.239467308790e+01       1.039184416782e-07       3.898121428297e-04      -1.975532890331e-06 
  100       2.688120433826e+03       7.706714723254e-01       0.000000000000e+00      -2.305485090785e+01       1.032822598028e-07       3.855567896667e-04      -1.969092717498e-06 
  101       2.719318392927e+03       7.853921627613e-01       0.000000000000e+00      -2.371593755483e+01       1.026543968036e-07       3.814078959247e-04      -1.962025016167e-06 
  102       2.750714442075e+03       7.999575011648e-01       0.000000000000e+00      -2.437740095032e+01       1.020314513923e-07       3.773544531270e-04      -1.955100367322e-06 
  103       2.782299825190e+03       8.143521570425e-01       0.000000000000e+00      -2.503869927818e+01       1.014081890452e-07       3.733809905760e-04      -1.949176245667e-06 
  104       2.814066122927e+03       8.285609985849e-01       0.000000000000e+00      -2.569928888505e+01       1.007794825453e-07       3.694726740205e-04      -1.945017211124e-06 
  105       2.846011232871e+03       8.425703470969e-01       0.000000000000e+00      -2.635864897995e+01       1.001471615676e-07       3.656324367786e-04      -1.942704792982e-06 
  106       2.878134101662e+03       8.563668982914e-01       0.000000000000e+00      -2.701626047473e+01       9.951464417049e-08       3.618667581130e-04      -1.942115962535e-06 
  107       2.910432852243e+03       8.699373478195e-01       0.000000000000e+00      -2.767159866672e+01       9.888489856568e-08       3.581804387120e-04      -1.943094766030e-06 
