# Matter power spectrum P(k) at redshift z=0
# for k=1.04772e-05 to 1.4771 h/Mpc,
# number of wavenumbers equal to 615
#    1:k (h/Mpc)              2:P (Mpc/h)^3        
       1.047721611604e-05       4.745077667862e+01 
       2.337160884545e-05       1.031067981676e+02 
       3.631148552178e-05       1.578981901874e+02 
       4.933173498670e-05       2.123713113647e+02 
       6.246782472630e-05       2.668440181258e+02 
       7.575611778262e-05       3.215586972561e+02 
       8.923419982384e-05       3.767171841553e+02 
       1.029412207317e-04       4.325297668862e+02 
       1.169182550974e-04       4.891794239546e+02 
       1.312086860513e-04       5.468192658357e+02 
       1.458586168576e-04       6.057132521340e+02 
       1.609173146433e-04       6.660296495584e+02 
       1.764376904497e-04       7.279780417462e+02 
       1.924768194188e-04       7.917864481461e+02 
       2.090965042571e-04       8.577252908541e+02 
       2.263638840274e-04       9.259832254180e+02 
       2.443520886257e-04       9.968686587698e+02 
       2.631409367943e-04       1.070679354848e+03 
       2.828176719111e-04       1.147737717441e+03 
       3.034777247676e-04       1.228436403082e+03 
       3.252254856929e-04       1.313073629800e+03 
       3.481750593182e-04       1.402157801558e+03 
       3.724509636005e-04       1.495988692913e+03 
       3.981887202057e-04       1.595152125374e+03 
       4.255352659986e-04       1.700116708470e+03 
       4.546490957763e-04       1.811505614782e+03 
       4.857000258896e-04       1.929756376793e+03 
       5.188684496471e-04       2.055819227882e+03 
       5.543439425947e-04       2.189526121943e+03 
       5.923230748684e-04       2.332492118042e+03 
       6.330063063564e-04       2.484848003346e+03 
       6.765938863645e-04       2.646957310349e+03 
       7.232807592847e-04       2.819913201523e+03 
       7.732505929779e-04       3.003645076730e+03 
       8.266691900946e-04       3.199146784589e+03 
       8.836776955887e-04       3.406111573373e+03 
       9.443861456891e-04       3.625339933725e+03 
       1.008867977302e-03       3.856128450175e+03 
       1.077156098660e-03       4.098774260225e+03 
       1.149240995533e-03       4.352489051707e+03 
       1.225071123819e-03       4.617350654273e+03 
       1.304555559374e-03       4.892264411937e+03 
       1.387568599160e-03       5.176569773772e+03 
       1.473955793490e-03       5.469469717437e+03 
       1.477104874446e-03       5.479990380776e+03 
       1.563540777208e-03       5.769640764540e+03 
       1.656132267476e-03       6.076543046502e+03 
       1.751530688271e-03       6.389106220814e+03 
       1.849534029879e-03       6.705960878323e+03 
       1.949942715819e-03       7.026695252931e+03 
       2.052563398186e-03       7.350169925200e+03 
       2.157211716833e-03       7.675573039224e+03 
       2.263714132658e-03       8.002234803533e+03 
       2.371908983900e-03       8.329357628090e+03 
       2.481646925033e-03       8.656401834198e+03 
       2.592790899744e-03       8.982785269715e+03 
       2.705215780877e-03       9.295811094132e+03 
       2.818807787272e-03       9.588645031295e+03 
       2.933463764205e-03       9.924738736262e+03 
       3.049090393024e-03       1.021224839179e+04 
       3.165603377669e-03       1.059096540545e+04 
       3.282926641281e-03       1.088312683489e+04 
       3.400991554837e-03       1.130161539721e+04 
       3.519736211339e-03       1.149316584796e+04 
       3.639104752903e-03       1.180363400564e+04 
       3.759046753773e-03       1.221030433663e+04 
       3.879516659328e-03       1.241969483067e+04 
       4.000473279216e-03       1.273016271548e+04 
       4.121879331576e-03       1.294681526791e+04 
       4.243701034667e-03       1.333150738188e+04 
       4.365907741911e-03       1.355791198918e+04 
       4.488471616355e-03       1.384923866242e+04 
       4.611367340640e-03       1.407461903652e+04 
       4.734571858815e-03       1.442517932132e+04 
       4.858064146562e-03       1.465147635526e+04 
       4.981825006720e-03       1.493116743082e+04 
       5.105836887287e-03       1.515283066398e+04 
       5.230083719335e-03       1.546935389840e+04 
       5.354550772586e-03       1.568936949543e+04 
       5.479224526624e-03       1.594931913746e+04 
       5.604092555930e-03       1.616488518848e+04 
       5.729143427188e-03       1.638240605228e+04 
       5.854366607421e-03       1.665822905502e+04 
       5.979752381752e-03       1.686868514001e+04 
       6.105291779675e-03       1.710343930111e+04 
       6.230976508899e-03       1.730793644269e+04 
       6.356798895889e-03       1.751100567790e+04 
       6.482751832388e-03       1.775390717935e+04 
       6.608828727238e-03       1.795078625630e+04 
       6.735023462929e-03       1.814308450931e+04 
       6.861330356372e-03       1.835175218642e+04 
       6.987744123421e-03       1.853881591839e+04 
       7.114259846769e-03       1.872433810558e+04 
       7.240872946848e-03       1.893142635937e+04 
       7.367579155425e-03       1.911035394653e+04 
       7.494374491612e-03       1.928435473406e+04 
       7.621255240056e-03       1.945633408735e+04 
       7.748217931067e-03       1.963524697515e+04 
       7.875259322516e-03       1.980069713578e+04 
       8.002376383307e-03       1.996272408035e+04 
       8.129566278279e-03       2.013791390944e+04 
       8.256826354405e-03       2.029346275280e+04 
       8.384154128147e-03       2.044560493187e+04 
       8.511547273877e-03       2.059505533590e+04 
       8.639003613253e-03       2.074692094936e+04 
       8.766521105463e-03       2.088997162001e+04 
       8.894097838259e-03       2.102937364899e+04 
       9.021732019713e-03       2.116629862436e+04 
       9.149421970623e-03       2.130967796290e+04 
       9.277166117519e-03       2.144044003951e+04 
       9.404962986212e-03       2.156740129577e+04 
       9.532811195837e-03       2.169175553084e+04 
       9.660709453356e-03       2.181723531734e+04 
       9.788656548476e-03       2.193539446411e+04 
       9.916651348948e-03       2.205077619207e+04 
       1.004469279621e-02       2.216343850246e+04 
       1.017277990137e-02       2.227937355319e+04 
       1.030091174145e-02       2.238613544770e+04 
       1.042908745596e-02       2.249006922851e+04 
       1.055730624363e-02       2.259110683575e+04 
       1.068556735948e-02       2.268933904596e+04 
       1.081387011204e-02       2.278758944318e+04 
       1.094221386077e-02       2.288050412234e+04 
       1.107059801365e-02       2.297068694070e+04 
       1.119902202500e-02       2.305826520722e+04 
       1.132748539339e-02       2.314314632830e+04 
       1.145598765974e-02       2.322946846257e+04 
       1.158452840548e-02       2.330924841186e+04 
       1.171310725098e-02       2.338655638881e+04 
       1.184172385390e-02       2.346123839648e+04 
       1.197037790784e-02       2.353344728454e+04 
       1.209906914095e-02       2.360497763492e+04 
       1.222779731470e-02       2.367233370769e+04 
       1.235656222276e-02       2.373726893309e+04 
       1.248536368985e-02       2.379987112014e+04 
       1.261420157081e-02       2.386011555918e+04 
       1.274307574966e-02       2.391805056599e+04 
       1.287198613871e-02       2.397619659859e+04 
       1.300093267782e-02       2.402962606736e+04 
       1.312991533361e-02       2.408082718959e+04 
       1.325893409881e-02       2.412975684294e+04 
       1.338798899163e-02       2.417662094459e+04 
       1.351708005517e-02       2.422132628504e+04 
       1.364620735690e-02       2.426484013324e+04 
       1.377537098817e-02       2.430528299320e+04 
       1.390457106377e-02       2.434360847156e+04 
       1.403380772152e-02       2.437984350974e+04 
       1.416308112189e-02       2.441418207738e+04 
       1.429239144768e-02       2.444638906133e+04 
       1.442173890372e-02       2.447822182529e+04 
       1.455112371661e-02       2.450659325951e+04 
       1.468054613448e-02       2.453306514134e+04 
       1.477104874446e-02       2.455041300063e+04 
       1.481000642676e-02       2.455760770685e+04 
       1.493950488406e-02       2.458027927350e+04 
       1.506904181793e-02       2.460111469036e+04 
       1.519861756085e-02       2.462004759840e+04 
       1.532823246602e-02       2.463781435278e+04 
       1.545788690735e-02       2.465319891943e+04 
       1.558758127939e-02       2.466685175995e+04 
       1.571731599731e-02       2.467873536980e+04 
       1.584709149685e-02       2.468893628404e+04 
       1.597690823438e-02       2.469737493998e+04 
       1.610676668692e-02       2.470416610766e+04 
       1.623666735219e-02       2.471029031576e+04 
       1.636661074866e-02       2.471383633262e+04 
       1.649659741567e-02       2.471572827056e+04 
       1.662662791353e-02       2.471610102635e+04 
       1.675670282366e-02       2.471484752445e+04 
       1.688682274871e-02       2.471209270695e+04 
       1.701698831274e-02       2.470781479055e+04 
       1.714720016139e-02       2.470198755025e+04 
       1.727745896210e-02       2.469510123200e+04 
       1.740776540429e-02       2.468638212488e+04 
       1.753812019963e-02       2.467623422162e+04 
       1.766852408227e-02       2.466462891412e+04 
       1.779897780909e-02       2.465163655790e+04 
       1.792948216001e-02       2.463730075730e+04 
       1.806003793826e-02       2.462157233744e+04 
       1.819064597073e-02       2.460449250175e+04 
       1.832130710827e-02       2.458676303031e+04 
       1.845202222605e-02       2.456711320681e+04 
       1.858279222393e-02       2.454615446105e+04 
       1.871361802683e-02       2.452394765395e+04 
       1.884450058515e-02       2.450051861265e+04 
       1.897544087516e-02       2.447588412162e+04 
       1.910643989945e-02       2.445004059229e+04 
       1.923749868737e-02       2.442300969337e+04 
       1.936861829552e-02       2.439479080479e+04 
       1.949979980822e-02       2.436571142865e+04 
       1.963104433801e-02       2.433525302615e+04 
       1.976235302620e-02       2.430365158282e+04 
       1.989372704337e-02       2.427099486252e+04 
       2.002516758998e-02       2.423726341602e+04 
       2.015667589692e-02       2.420245033202e+04 
       2.028825322612e-02       2.416663497952e+04 
       2.041990087119e-02       2.412975922593e+04 
       2.055162015802e-02       2.409192038942e+04 
       2.068341244550e-02       2.405351710692e+04 
       2.081527912617e-02       2.401370803998e+04 
       2.094722162692e-02       2.397296880174e+04 
       2.107924140977e-02       2.393128711991e+04 
       2.121133997258e-02       2.388869583046e+04 
       2.134351884984e-02       2.384521284379e+04 
       2.147577961350e-02       2.380082108485e+04 
       2.160812387376e-02       2.375558888835e+04 
       2.174055327997e-02       2.370950520012e+04 
       2.187306952147e-02       2.366256092326e+04 
       2.200567432853e-02       2.361500834321e+04 
       2.213836947328e-02       2.356644606684e+04 
       2.227115677070e-02       2.351712319477e+04 
       2.240403807957e-02       2.346700507407e+04 
       2.253701530355e-02       2.341614713939e+04 
       2.267009039221e-02       2.336453115665e+04 
       2.280326534217e-02       2.331220360263e+04 
       2.293654219818e-02       2.325914784965e+04 
       2.306992305429e-02       2.320540874739e+04 
       2.320341005511e-02       2.315098919828e+04 
       2.333700539697e-02       2.309587584821e+04 
       2.347071132927e-02       2.304046219117e+04 
       2.360453015576e-02       2.298405075001e+04 
       2.373846423590e-02       2.292704462471e+04 
       2.387251598628e-02       2.286940742117e+04 
       2.400668788207e-02       2.281119085829e+04 
       2.414098245851e-02       2.275237341685e+04 
       2.427540231245e-02       2.269299644554e+04 
       2.440995010395e-02       2.263305928538e+04 
       2.454462855794e-02       2.257255827896e+04 
       2.467944046586e-02       2.251154255051e+04 
       2.481438868750e-02       2.244999016682e+04 
       2.494947615274e-02       2.238808424662e+04 
       2.508470586346e-02       2.232554046758e+04 
       2.522008089546e-02       2.226252269373e+04 
       2.535560440046e-02       2.219902552631e+04 
       2.549127960814e-02       2.213507617993e+04 
       2.562710982834e-02       2.207068325189e+04 
       2.576309845317e-02       2.200586217864e+04 
       2.589924895938e-02       2.194060225397e+04 
       2.603556491067e-02       2.187495376639e+04 
       2.617204996013e-02       2.180888353670e+04 
       2.630870785278e-02       2.174244355421e+04 
       2.644554242816e-02       2.167561895165e+04 
       2.658255762308e-02       2.160868641087e+04 
       2.671975747436e-02       2.154114857993e+04 
       2.685714612175e-02       2.147326931732e+04 
       2.699472781095e-02       2.140506205198e+04 
       2.713250689671e-02       2.133652303904e+04 
       2.727048784602e-02       2.126767904444e+04 
       2.740867524149e-02       2.119853490743e+04 
       2.754707378479e-02       2.112909147278e+04 
       2.768568830025e-02       2.105936869832e+04 
       2.782452373856e-02       2.098938047442e+04 
       2.796358518068e-02       2.091912048883e+04 
       2.810287784177e-02       2.084861669298e+04 
       2.824240707545e-02       2.077796956846e+04 
       2.838217837801e-02       2.070698971479e+04 
       2.852219739301e-02       2.063577455152e+04 
       2.866246991582e-02       2.056434044868e+04 
       2.880300189858e-02       2.049270675400e+04 
       2.894379945516e-02       2.042087441098e+04 
       2.908486886640e-02       2.034883939732e+04 
       2.922621658559e-02       2.027662947172e+04 
       2.936784924412e-02       2.020424393403e+04 
       2.950977365734e-02       2.013168360911e+04 
       2.965199683076e-02       2.005897451803e+04 
       2.979452596641e-02       1.998610306172e+04 
       2.993736846947e-02       1.991310059687e+04 
       3.008053195529e-02       1.984015826656e+04 
       3.022402425653e-02       1.976688459378e+04 
       3.036785343079e-02       1.969349345366e+04 
       3.051202776841e-02       1.961998820324e+04 
       3.065655580076e-02       1.954636806652e+04 
       3.080144630872e-02       1.947264757703e+04 
       3.094670833173e-02       1.939883889097e+04 
       3.109235117708e-02       1.932492922935e+04 
       3.123838442975e-02       1.925094622081e+04 
       3.138481796257e-02       1.917688333952e+04 
       3.153166194695e-02       1.910274954208e+04 
       3.167892686409e-02       1.902855251481e+04 
       3.182662351666e-02       1.895428691863e+04 
       3.197476304108e-02       1.887997729573e+04 
       3.212335692040e-02       1.880571058897e+04 
       3.227241699777e-02       1.873130272826e+04 
       3.242195549053e-02       1.865686343502e+04 
       3.257198500510e-02       1.858238881714e+04 
       3.272251855251e-02       1.850788233223e+04 
       3.287356956474e-02       1.843334769999e+04 
       3.302515191190e-02       1.835879923989e+04 
       3.317727992030e-02       1.828422585161e+04 
       3.332996839138e-02       1.820965023206e+04 
       3.348323262173e-02       1.813505859739e+04 
       3.363708842412e-02       1.806045536159e+04 
       3.379155214958e-02       1.798586322382e+04 
       3.394664071085e-02       1.791126631723e+04 
       3.410237160689e-02       1.783667774939e+04 
       3.425876294891e-02       1.776228139650e+04 
       3.441583348773e-02       1.768771999283e+04 
       3.457360264280e-02       1.761316903135e+04 
       3.473209053274e-02       1.753863430141e+04 
       3.489131800774e-02       1.746412331954e+04 
       3.505130668376e-02       1.738962663833e+04 
       3.521207897886e-02       1.731515713532e+04 
       3.537365815154e-02       1.724071610946e+04 
       3.553606834152e-02       1.716629518152e+04 
       3.569933461296e-02       1.709191509574e+04 
       3.586348300030e-02       1.701755274050e+04 
       3.602854055705e-02       1.694322444074e+04 
       3.619453540759e-02       1.686893065678e+04 
       3.636149680235e-02       1.679466817158e+04 
       3.652945517646e-02       1.672052154264e+04 
       3.669844221240e-02       1.664632574789e+04 
       3.686849090667e-02       1.657216858031e+04 
       3.703963564106e-02       1.649803691313e+04 
       3.721191225868e-02       1.642394371121e+04 
       3.738535814534e-02       1.634988532949e+04 
       3.756001231658e-02       1.627585236937e+04 
       3.773591551089e-02       1.620185742150e+04 
       3.791311028961e-02       1.612787870512e+04 
       3.809164114424e-02       1.605394013392e+04 
       3.827155461151e-02       1.598002867787e+04 
       3.845289939728e-02       1.590613389773e+04 
       3.863572650975e-02       1.583227099647e+04 
       3.882008940302e-02       1.575842630369e+04 
       3.900604413197e-02       1.568476089053e+04 
       3.919364951933e-02       1.561094323980e+04 
       3.938296733649e-02       1.553714549956e+04 
       3.957406249892e-02       1.546335067862e+04 
       3.976700327811e-02       1.538956143941e+04 
       3.996186153136e-02       1.531577094460e+04 
       4.015871295146e-02       1.524196957009e+04 
       4.035763733812e-02       1.516816441235e+04 
       4.055871889378e-02       1.509433616258e+04 
       4.076204654602e-02       1.502048663126e+04 
       4.096771429982e-02       1.494661034732e+04 
       4.117582162284e-02       1.487270014959e+04 
       4.138647386745e-02       1.479873780137e+04 
       4.159978273381e-02       1.472480398655e+04 
       4.181586677885e-02       1.465074282125e+04 
       4.203485197649e-02       1.457660432805e+04 
       4.225687233551e-02       1.450239355065e+04 
       4.248207058221e-02       1.442808817393e+04 
       4.271059891591e-02       1.435368879920e+04 
       4.294261984691e-02       1.427916540713e+04 
       4.317830712756e-02       1.420452878344e+04 
       4.341784678920e-02       1.412975207780e+04 
       4.366143829916e-02       1.405483170346e+04 
       4.390929585495e-02       1.397973038377e+04 
       4.416164983507e-02       1.390444641788e+04 
       4.441874842941e-02       1.382910476313e+04 
       4.468085947598e-02       1.375340601797e+04 
       4.494827253559e-02       1.367745918235e+04 
       4.522130124165e-02       1.360125463160e+04 
       4.550028596892e-02       1.352475372679e+04 
       4.578559687361e-02       1.344794591395e+04 
       4.607763736700e-02       1.337078747869e+04 
       4.637684809687e-02       1.329326291041e+04 
       4.668371152637e-02       1.321533177573e+04 
       4.699875721779e-02       1.313695033147e+04 
       4.732256795181e-02       1.305809363606e+04 
       4.765578684071e-02       1.297877316996e+04 
       4.799912562891e-02       1.289881540183e+04 
       4.835337441816e-02       1.281822698492e+04 
       4.871941310930e-02       1.273695015264e+04 
       4.909822492179e-02       1.265492347854e+04 
       4.949091243960e-02       1.257207058141e+04 
       4.989871674259e-02       1.248829924201e+04 
       5.032304032407e-02       1.240352647489e+04 
       5.076547467429e-02       1.231764098409e+04 
       5.122783363900e-02       1.223065416581e+04 
       5.171219395370e-02       1.214214921852e+04 
       5.222094472376e-02       1.205209869774e+04 
       5.275684808459e-02       1.196029475837e+04 
       5.332311385035e-02       1.186650761490e+04 
       5.392349164873e-02       1.177045046430e+04 
       5.456238482521e-02       1.167184391749e+04 
       5.524499120523e-02       1.157012804638e+04 
       5.597747642477e-02       1.146483246121e+04 
       5.676718552587e-02       1.135528325166e+04 
       5.762289691269e-02       1.124061800151e+04 
       5.855511770064e-02       1.111983069818e+04 
       5.957640744790e-02       1.099119216219e+04 
