# Matter power spectrum P(k) at redshift z=0
# for k=1.047e-05 to 1.4771 h/Mpc,
# number of wavenumbers equal to 615
#    1:k (h/Mpc)              2:P (Mpc/h)^3        
       1.046996940314e-05       4.698722240874e+01 
       2.335843205947e-05       1.021121313270e+02 
       3.629230953490e-05       1.563802548865e+02 
       4.930644233389e-05       2.103326423333e+02 
       6.243624821964e-05       2.642839583954e+02 
       7.571803839138e-05       3.184740965469e+02 
       8.918934378724e-05       3.731108452879e+02 
       1.028892558571e-04       4.283874615575e+02 
       1.168587861832e-04       4.844896605382e+02 
       1.311412493588e-04       5.416092669521e+02 
       1.457826735441e-04       5.999364092752e+02 
       1.608322430533e-04       6.596701704535e+02 
       1.763427771509e-04       7.210194404808e+02 
       1.923712488592e-04       7.842053912568e+02 
       2.089793469153e-04       8.494638702092e+02 
       2.262340829276e-04       9.170477818773e+02 
       2.442084441040e-04       9.872294947140e+02 
       2.629820894250e-04       1.060304709957e+03 
       2.826420835540e-04       1.136589109550e+03 
       3.032836577704e-04       1.216492017186e+03 
       3.250109804041e-04       1.300260213816e+03 
       3.479379102294e-04       1.388725951295e+03 
       3.721886946754e-04       1.481619391870e+03 
       3.978985602590e-04       1.579862802439e+03 
       4.252141253867e-04       1.683860447513e+03 
       4.542935461435e-04       1.794046650825e+03 
       4.853062852640e-04       1.911301177275e+03 
       5.184323757612e-04       2.035959836795e+03 
       5.538610378313e-04       2.168965238389e+03 
       5.917885065848e-04       2.310587134291e+03 
       6.324149463405e-04       2.462143984939e+03 
       6.759403726311e-04       2.622707991974e+03 
       7.225595821326e-04       2.794136535117e+03 
       7.724562050894e-04       2.976096131833e+03 
       8.257961375288e-04       3.169900689054e+03 
       8.827207631091e-04       3.375726483058e+03 
       9.433405065688e-04       3.592778101221e+03 
       1.007729335344e-03       3.821610848439e+03 
       1.075920809441e-03       4.062161422356e+03 
       1.147906155304e-03       4.314015016169e+03 
       1.223634618034e-03       4.576576930731e+03 
       1.303016067811e-03       4.849011993038e+03 
       1.385925559982e-03       5.130797649938e+03 
       1.472209333196e-03       5.421026069053e+03 
       1.477104874446e-03       5.437326245261e+03 
       1.561691616385e-03       5.718511525801e+03 
       1.654181613276e-03       6.022552102865e+03 
       1.749480123785e-03       6.332296686456e+03 
       1.847385408599e-03       6.646384147883e+03 
       1.947698066884e-03       6.964255752854e+03 
       2.050224845606e-03       7.284722047559e+03 
       2.154781413792e-03       7.607099485775e+03 
       2.261194210465e-03       7.930725262851e+03 
       2.369301514182e-03       8.254780196113e+03 
       2.478953893259e-03       8.578693079093e+03 
       2.590014188044e-03       8.901925457311e+03 
       2.702357158186e-03       9.420705158824e+03 
       2.815868905059e-03       9.880857278050e+03 
       2.930446156300e-03       1.005154387066e+04 
       3.045995478343e-03       1.041442937081e+04 
       3.162432464896e-03       1.061052571071e+04 
       3.279680934768e-03       1.094801094705e+04 
       3.397672161195e-03       1.117416602879e+04 
       3.516344146317e-03       1.156617231228e+04 
       3.635640948281e-03       1.186270333944e+04 
       3.755512064086e-03       1.211458289491e+04 
       3.875911868285e-03       1.244813608750e+04 
       3.996799105755e-03       1.273381561854e+04 
       4.118136435508e-03       1.304553731142e+04 
       4.239890021891e-03       1.330072024207e+04 
       4.362029169211e-03       1.359450146865e+04 
       4.484525995788e-03       1.386689075450e+04 
       4.607355143537e-03       1.414811248574e+04 
       4.730493519417e-03       1.440074326071e+04 
       4.853920065319e-03       1.467033192707e+04 
       4.977615553286e-03       1.492681468144e+04 
       5.101562403225e-03       1.518636762995e+04 
       5.225744520567e-03       1.542979849500e+04 
       5.350147151612e-03       1.567950623796e+04 
       5.474756754523e-03       1.592062199515e+04 
       5.599560884180e-03       1.616113023956e+04 
       5.724548089302e-03       1.639677422339e+04 
       5.849707820438e-03       1.662348867218e+04 
       5.975030347582e-03       1.685057706882e+04 
       6.100506686322e-03       1.707176944346e+04 
       6.226128531566e-03       1.729037547511e+04 
       6.351888197989e-03       1.750470761605e+04 
       6.477778566456e-03       1.771299563581e+04 
       6.603793035762e-03       1.791920555703e+04 
       6.729925479112e-03       1.812145028565e+04 
       6.856170204817e-03       1.831901876900e+04 
       6.982521920765e-03       1.851329025210e+04 
       7.108975702255e-03       1.870361557448e+04 
       7.235526962855e-03       1.888956464393e+04 
       7.362171427943e-03       1.907227248443e+04 
       7.488905110688e-03       1.925125058389e+04 
       7.615724290195e-03       1.942649208913e+04 
       7.742625491602e-03       1.959792832450e+04 
       7.869605467949e-03       1.976583993933e+04 
       7.996661183622e-03       1.993016654286e+04 
       8.123789799228e-03       2.009092777496e+04 
       8.250988657773e-03       2.024818184954e+04 
       8.378255271998e-03       2.040194607376e+04 
       8.505587312777e-03       2.055226827103e+04 
       8.632982598479e-03       2.069927761848e+04 
       8.760439085192e-03       2.084283490872e+04 
       8.887954857750e-03       2.098305934622e+04 
       9.015528121466e-03       2.111999636479e+04 
       9.143157194537e-03       2.125397222684e+04 
       9.270840501027e-03       2.138447498134e+04 
       9.398576564412e-03       2.151178663644e+04 
       9.526364001617e-03       2.163599803580e+04 
       9.654201517503e-03       2.175724604224e+04 
       9.782087899782e-03       2.187524577940e+04 
       9.910022014303e-03       2.199016486504e+04 
       1.003800280070e-02       2.210215853318e+04 
       1.016602926835e-02       2.221153914010e+04 
       1.029410049263e-02       2.231764528948e+04 
       1.042221561146e-02       2.242083809025e+04 
       1.055037382209e-02       2.252117293424e+04 
       1.067857437808e-02       2.261865559676e+04 
       1.080681658658e-02       2.271357020834e+04 
       1.093509980570e-02       2.280551053640e+04 
       1.106342344215e-02       2.289471425761e+04 
       1.119178694902e-02       2.298119929546e+04 
       1.132018982368e-02       2.306501682183e+04 
       1.144863160590e-02       2.314667902820e+04 
       1.157711187602e-02       2.322530799742e+04 
       1.170563025329e-02       2.330137942576e+04 
       1.183418639437e-02       2.337486247431e+04 
       1.196277999181e-02       2.344585683536e+04 
       1.209141077281e-02       2.351462909934e+04 
       1.222007849787e-02       2.358070937427e+04 
       1.234878295970e-02       2.364440402914e+04 
       1.247752398213e-02       2.370566954473e+04 
       1.260630141912e-02       2.376456402789e+04 
       1.273511515380e-02       2.382113584843e+04 
       1.286396509764e-02       2.387591933733e+04 
       1.299285118965e-02       2.392793532823e+04 
       1.312177339564e-02       2.397771350535e+04 
       1.325073170751e-02       2.402526082620e+04 
       1.337972614269e-02       2.407056715167e+04 
       1.350875674349e-02       2.411376388218e+04 
       1.363782357661e-02       2.415507790970e+04 
       1.376692673263e-02       2.419403130304e+04 
       1.389606632558e-02       2.423087766964e+04 
       1.402524249252e-02       2.426567510918e+04 
       1.415445539319e-02       2.429844101597e+04 
       1.428370520965e-02       2.432912541134e+04 
       1.441299214598e-02       2.435849420042e+04 
       1.454231642807e-02       2.438532987776e+04 
       1.467167830329e-02       2.441024243781e+04 
       1.477104874446e-02       2.442808461146e+04 
       1.480107804038e-02       2.443325142994e+04 
       1.493051592919e-02       2.445436291272e+04 
       1.505999228057e-02       2.447361963832e+04 
       1.518950742625e-02       2.449101783190e+04 
       1.531906171873e-02       2.450689171662e+04 
       1.544865553118e-02       2.452070598400e+04 
       1.557828925743e-02       2.453275246259e+04 
       1.570796331189e-02       2.454305948741e+04 
       1.583767812959e-02       2.455165317687e+04 
       1.596743416616e-02       2.455852664307e+04 
       1.609723189787e-02       2.456373217014e+04 
       1.622707182169e-02       2.456783437885e+04 
       1.635695445533e-02       2.456979246081e+04 
       1.648688033738e-02       2.457012316970e+04 
       1.661685002739e-02       2.456889151736e+04 
       1.674686410598e-02       2.456607066363e+04 
       1.687692317504e-02       2.456172583258e+04 
       1.700702785782e-02       2.455586551115e+04 
       1.713717879918e-02       2.454848004456e+04 
       1.726737666573e-02       2.453990782210e+04 
       1.739762214610e-02       2.452961741955e+04 
       1.752791595111e-02       2.451789708644e+04 
       1.765825881407e-02       2.450474129176e+04 
       1.778865149101e-02       2.449019559089e+04 
       1.791909476099e-02       2.447429871992e+04 
       1.804958942636e-02       2.445702705502e+04 
       1.818013631312e-02       2.443841098522e+04 
       1.831073627122e-02       2.441907222136e+04 
       1.844139017492e-02       2.439789974881e+04 
       1.857209892313e-02       2.437543811947e+04 
       1.870286343984e-02       2.435172766600e+04 
       1.883368467447e-02       2.432678537063e+04 
       1.896456360232e-02       2.430065295630e+04 
       1.909550122498e-02       2.427331026670e+04 
       1.922649857079e-02       2.424479972817e+04 
       1.935755669532e-02       2.421510920235e+04 
       1.948867668183e-02       2.418458925475e+04 
       1.961985964180e-02       2.415267290802e+04 
       1.975110671543e-02       2.411963004460e+04 
       1.988241907221e-02       2.408552724780e+04 
       2.001379791145e-02       2.405036071548e+04 
       2.014524446290e-02       2.401411870297e+04 
       2.027675998731e-02       2.397688504755e+04 
       2.040834577708e-02       2.393860217528e+04 
       2.054000315688e-02       2.389935777416e+04 
       2.067173348436e-02       2.385969801775e+04 
       2.080353815076e-02       2.381851371490e+04 
       2.093541858170e-02       2.377640189820e+04 
       2.106737623785e-02       2.373335761802e+04 
       2.119941261572e-02       2.368941064119e+04 
       2.133152924842e-02       2.364457923640e+04 
       2.146372770648e-02       2.359884081606e+04 
       2.159600959866e-02       2.355227254939e+04 
       2.172837657282e-02       2.350485444643e+04 
       2.186083031681e-02       2.345658126704e+04 
       2.199337255935e-02       2.340780950706e+04 
       2.212600507100e-02       2.335794599286e+04 
       2.225872966512e-02       2.330731833074e+04 
       2.239154819885e-02       2.325590681747e+04 
       2.252446257417e-02       2.320376681228e+04 
       2.265747473893e-02       2.315086894069e+04 
       2.279058668798e-02       2.309726810552e+04 
       2.292380046427e-02       2.304294389232e+04 
       2.305711816002e-02       2.298794543476e+04 
       2.319054191793e-02       2.293227583233e+04 
       2.332407393244e-02       2.287591216096e+04 
       2.345771645094e-02       2.281951139558e+04 
       2.359147177517e-02       2.276188342860e+04 
       2.372534226253e-02       2.270366516789e+04 
       2.385933032748e-02       2.264481095476e+04 
       2.399343844303e-02       2.258539856683e+04 
       2.412766914220e-02       2.252538509036e+04 
       2.426202501956e-02       2.246483216985e+04 
       2.439650873284e-02       2.240372586634e+04 
       2.453112300457e-02       2.234205072485e+04 
       2.466587062377e-02       2.227987891977e+04 
       2.480075444770e-02       2.221717120070e+04 
       2.493577740369e-02       2.215426695192e+04 
       2.507094249097e-02       2.209059023149e+04 
       2.520625278265e-02       2.202645687567e+04 
       2.534171142767e-02       2.196184226422e+04 
       2.547732165290e-02       2.189678872691e+04 
       2.561308676523e-02       2.183129858164e+04 
       2.574901015382e-02       2.176538971920e+04 
       2.588509529233e-02       2.169904044181e+04 
       2.602134574133e-02       2.163232489919e+04 
       2.615776515068e-02       2.156517820940e+04 
       2.629435726209e-02       2.149768516006e+04 
       2.643112591171e-02       2.143034775984e+04 
       2.656807503286e-02       2.136213910760e+04 
       2.670520865877e-02       2.129356776657e+04 
       2.684253092553e-02       2.122466448929e+04 
       2.698004607506e-02       2.115544368931e+04 
       2.711775845821e-02       2.108588700853e+04 
       2.725567253801e-02       2.101605020629e+04 
       2.739379289297e-02       2.094591485413e+04 
       2.753212422054e-02       2.087547756752e+04 
       2.767067134073e-02       2.080477081889e+04 
       2.780943919979e-02       2.073380927763e+04 
       2.794843287410e-02       2.066257646074e+04 
       2.808765757413e-02       2.059110638198e+04 
       2.822711864864e-02       2.051964960229e+04 
       2.836682158897e-02       2.044772924250e+04 
       2.850677203354e-02       2.037556815253e+04 
       2.864697577248e-02       2.030320075796e+04 
       2.878743875248e-02       2.023063973811e+04 
       2.892816708183e-02       2.015789409697e+04 
       2.906916703564e-02       2.008493321184e+04 
       2.921044506126e-02       2.001181628967e+04 
       2.935200778398e-02       1.993852797099e+04 
       2.949386201289e-02       1.986505927603e+04 
       2.963601474700e-02       1.979146999324e+04 
       2.977847318166e-02       1.971770429256e+04 
       2.992124471520e-02       1.964383266985e+04 
       3.006433695583e-02       1.957032425282e+04 
       3.020775772892e-02       1.949618748908e+04 
       3.035151508450e-02       1.942194249542e+04 
       3.049561730512e-02       1.934759170285e+04 
       3.064007291409e-02       1.927311953876e+04 
       3.078489068401e-02       1.919855758717e+04 
       3.093007964571e-02       1.912391617089e+04 
       3.107564909765e-02       1.904916587563e+04 
       3.122160861561e-02       1.897436120989e+04 
       3.136796806299e-02       1.889947222849e+04 
       3.151473760139e-02       1.882452117507e+04 
       3.166192770190e-02       1.874951320504e+04 
       3.180954915672e-02       1.867442672028e+04 
       3.195761309144e-02       1.859931994202e+04 
       3.210613097789e-02       1.852440801098e+04 
       3.225511464760e-02       1.844919964776e+04 
       3.240457630592e-02       1.837397308999e+04 
       3.255452854678e-02       1.829871249592e+04 
       3.270498436831e-02       1.822341839160e+04 
       3.285595718911e-02       1.814809563837e+04 
       3.300746086541e-02       1.807277681527e+04 
       3.315950970911e-02       1.799741807938e+04 
       3.331211850670e-02       1.792207478024e+04 
       3.346530253927e-02       1.784670935992e+04 
       3.361907760345e-02       1.777133310706e+04 
       3.377346003356e-02       1.769598887974e+04 
       3.392846672490e-02       1.762060996099e+04 
       3.408411515835e-02       1.754525655466e+04 
       3.424042342629e-02       1.747042199274e+04 
       3.439741025996e-02       1.739511177528e+04 
       3.455509505839e-02       1.731980320415e+04 
       3.471349791896e-02       1.724451552704e+04 
       3.487263966972e-02       1.716926241296e+04 
       3.503254190355e-02       1.709400829732e+04 
       3.519322701442e-02       1.701879209189e+04 
       3.535471823571e-02       1.694360830565e+04 
       3.551703968090e-02       1.686843420175e+04 
       3.568021638673e-02       1.679331025866e+04 
       3.584427435901e-02       1.671819178635e+04 
       3.600924062128e-02       1.664311588790e+04 
       3.617514326659e-02       1.656807370717e+04 
       3.634201151251e-02       1.649307132478e+04 
       3.650987575983e-02       1.641831163556e+04 
       3.667876765498e-02       1.634336224380e+04 
       3.684872015666e-02       1.626845862765e+04 
       3.701976760699e-02       1.619356271174e+04 
       3.719194580743e-02       1.611871331144e+04 
       3.736529210001e-02       1.604389618859e+04 
       3.753984545422e-02       1.596909546774e+04 
       3.771564656010e-02       1.589433992696e+04 
       3.789273792799e-02       1.581958679322e+04 
       3.807116399559e-02       1.574487498064e+04 
       3.825097124294e-02       1.567018631116e+04 
       3.843220831601e-02       1.559549551251e+04 
       3.861492615977e-02       1.552085015592e+04 
       3.879917816145e-02       1.544618980614e+04 
       3.898502030516e-02       1.537202469614e+04 
       3.917251133871e-02       1.529739854901e+04 
       3.936171295399e-02       1.522279561230e+04 
       3.955268998218e-02       1.514817975773e+04 
       3.974551060523e-02       1.507356746020e+04 
       3.994024658521e-02       1.499893461068e+04 
       4.013697351353e-02       1.492428063348e+04 
       4.033577108197e-02       1.484962846306e+04 
       4.053672337774e-02       1.477493886737e+04 
       4.073991920541e-02       1.470021299180e+04 
       4.094545243846e-02       1.462544937653e+04 
       4.115342240374e-02       1.455064596008e+04 
       4.136393430271e-02       1.447576014640e+04 
       4.157709967358e-02       1.440103793210e+04 
       4.179303689919e-02       1.432603130476e+04 
       4.201187176611e-02       1.425092820882e+04 
       4.223373808123e-02       1.417575047814e+04 
       4.245877835285e-02       1.410044215883e+04 
       4.268714454463e-02       1.402503845810e+04 
       4.291899891166e-02       1.394947768806e+04 
       4.315451492947e-02       1.387379006826e+04 
       4.339387832852e-02       1.379793514534e+04 
       4.363728824861e-02       1.372190739224e+04 
       4.388495852999e-02       1.364566781308e+04 
       4.413711916067e-02       1.356924064768e+04 
       4.439401790286e-02       1.349295746272e+04 
       4.465592212515e-02       1.341604955302e+04 
       4.492312087198e-02       1.333884681278e+04 
       4.519592720730e-02       1.326136218618e+04 
       4.547468087644e-02       1.318352674729e+04 
       4.575975133805e-02       1.310535753478e+04 
       4.605154122822e-02       1.302677667142e+04 
       4.635049033097e-02       1.294779562701e+04 
       4.665708014400e-02       1.286835505437e+04 
       4.697183914733e-02       1.278839358376e+04 
       4.729534890440e-02       1.270791410382e+04 
       4.762825115382e-02       1.262702093929e+04 
       4.797125608439e-02       1.254530029015e+04 
       4.832515202958e-02       1.246286857670e+04 
       4.869081687249e-02       1.237966169995e+04 
       4.906923152083e-02       1.229562136110e+04 
       4.946149589864e-02       1.221065625248e+04 
       4.986884801186e-02       1.212464814692e+04 
       5.029268678493e-02       1.203752783892e+04 
       5.073459954480e-02       1.194916451312e+04 
       5.119639525657e-02       1.185980700047e+04 
       5.168014490505e-02       1.176851791136e+04 
       5.218823078483e-02       1.167551571447e+04 
       5.272340692341e-02       1.158055217892e+04 
       5.328887343374e-02       1.148338782194e+04 
       5.388836827987e-02       1.138370456137e+04 
       5.452628072327e-02       1.128131500728e+04 
       5.520779152316e-02       1.117538274369e+04 
       5.593904559172e-02       1.106551498891e+04 
       5.672736280783e-02       1.095099625913e+04 
       5.758149113150e-02       1.083092428466e+04 
       5.851190118173e-02       1.070445832932e+04 
       5.953110956211e-02       1.056936788372e+04 
