# Matter power spectrum P(k) at redshift z=0
# for k=1.04772e-05 to 1.4771 h/Mpc,
# number of wavenumbers equal to 615
#    1:k (h/Mpc)              2:P (Mpc/h)^3        
       1.047721611604e-05       4.670562900223e+01 
       2.337160884545e-05       1.014875628078e+02 
       3.631148552178e-05       1.554182472004e+02 
       4.933173498670e-05       2.090353515748e+02 
       6.246782472630e-05       2.626516253838e+02 
       7.575611778262e-05       3.165055243585e+02 
       8.923419982384e-05       3.708011618942e+02 
       1.029412207317e-04       4.257351307337e+02 
       1.169182550974e-04       4.814920729861e+02 
       1.312086860513e-04       5.383735170118e+02 
       1.458586168576e-04       5.963532051450e+02 
       1.609173146433e-04       6.557316926045e+02 
       1.764376904497e-04       7.167229692142e+02 
       1.924768194188e-04       7.795365940212e+02 
       2.090965042571e-04       8.444724771384e+02 
       2.263638840274e-04       9.116625165054e+02 
       2.443520886257e-04       9.814356088763e+02 
       2.631409367943e-04       1.054084127892e+03 
       2.828176719111e-04       1.129924529689e+03 
       3.034777247676e-04       1.209312727151e+03 
       3.252254856929e-04       1.292595940148e+03 
       3.481750593182e-04       1.380388296374e+03 
       3.724509636005e-04       1.472711877435e+03 
       3.981887202057e-04       1.570280031034e+03 
       4.255352659986e-04       1.673636575163e+03 
       4.546490957763e-04       1.783185603985e+03 
       4.857000258896e-04       1.899483224861e+03 
       5.188684496471e-04       2.023774866900e+03 
       5.543439425947e-04       2.155740413922e+03 
       5.923230748684e-04       2.296636812218e+03 
       6.330063063564e-04       2.447001732340e+03 
       6.765938863645e-04       2.606953779708e+03 
       7.232807592847e-04       2.777235278442e+03 
       7.732505929779e-04       2.958580555412e+03 
       8.266691900946e-04       3.151465672022e+03 
       8.836776955887e-04       3.355458638960e+03 
       9.443861456891e-04       3.571404651835e+03 
       1.008867977302e-03       3.798999410216e+03 
       1.077156098660e-03       4.038260431825e+03 
       1.149240995533e-03       4.288501918579e+03 
       1.225071123819e-03       4.549317415521e+03 
       1.304555559374e-03       4.820281682409e+03 
       1.387568599160e-03       5.100287880604e+03 
       1.473955793490e-03       5.388597085414e+03 
       1.477104874446e-03       5.398954772502e+03 
       1.563540777208e-03       5.684272094422e+03 
       1.656132267476e-03       5.986384063489e+03 
       1.751530688271e-03       6.293973969486e+03 
       1.849534029879e-03       6.606099774387e+03 
       1.949942715819e-03       6.921695791643e+03 
       2.052563398186e-03       7.240068990899e+03 
       2.157211716833e-03       7.560294183538e+03 
       2.263714132658e-03       7.881643248389e+03 
       2.371908983900e-03       8.203457864573e+03 
       2.481646925033e-03       8.525144150209e+03 
       2.592790899744e-03       8.846077021380e+03 
       2.705215780877e-03       9.476914600592e+03 
       2.818807787272e-03       1.001795704761e+04 
       2.933463764205e-03       1.009759570700e+04 
       3.049090393024e-03       1.049107107291e+04 
       3.165603377669e-03       1.060545846726e+04 
       3.282926641281e-03       1.095897000789e+04 
       3.400991554837e-03       1.112363757108e+04 
       3.519736211339e-03       1.157547297092e+04 
       3.639104752903e-03       1.186642453534e+04 
       3.759046753773e-03       1.208166974490e+04 
       3.879516659328e-03       1.244238970761e+04 
       4.000473279216e-03       1.272258657596e+04 
       4.121879331576e-03       1.305149462987e+04 
       4.243701034667e-03       1.328312898367e+04 
       4.365907741911e-03       1.358707846928e+04 
       4.488471616355e-03       1.385592820388e+04 
       4.611367340640e-03       1.414409334190e+04 
       4.734571858815e-03       1.438381616128e+04 
       4.858064146562e-03       1.465783704729e+04 
       4.981825006720e-03       1.491138976165e+04 
       5.105836887287e-03       1.517411116169e+04 
       5.230083719335e-03       1.541067271075e+04 
       5.354550772586e-03       1.566241504311e+04 
       5.479224526624e-03       1.590177245734e+04 
       5.604092555930e-03       1.614363606512e+04 
       5.729143427188e-03       1.638004543462e+04 
       5.854366607421e-03       1.660320036303e+04 
       5.979752381752e-03       1.683081358107e+04 
       6.105291779675e-03       1.705096014658e+04 
       6.230976508899e-03       1.726981333428e+04 
       6.356798895889e-03       1.748422317843e+04 
       6.482751832388e-03       1.769073419423e+04 
       6.608828727238e-03       1.789686904320e+04 
       6.735023462929e-03       1.809900670444e+04 
       6.861330356372e-03       1.829586033615e+04 
       6.987744123421e-03       1.848990715023e+04 
       7.114259846769e-03       1.867991124413e+04 
       7.240872946848e-03       1.886497274548e+04 
       7.367579155425e-03       1.904732345679e+04 
       7.494374491612e-03       1.922594889117e+04 
       7.621255240056e-03       1.940076888831e+04 
       7.748217931067e-03       1.957166863309e+04 
       7.875259322516e-03       1.973914060700e+04 
       8.002376383307e-03       1.990299050410e+04 
       8.129566278279e-03       2.006323556594e+04 
       8.256826354405e-03       2.022002735286e+04 
       8.384154128147e-03       2.037331719649e+04 
       8.511547273877e-03       2.052314451029e+04 
       8.639003613253e-03       2.066968741882e+04 
       8.766521105463e-03       2.081274147136e+04 
       8.894097838259e-03       2.095244633759e+04 
       9.021732019713e-03       2.108885645956e+04 
       9.149421970623e-03       2.122247290710e+04 
       9.277166117519e-03       2.135245360847e+04 
       9.404962986212e-03       2.147934048826e+04 
       9.532811195837e-03       2.160299279658e+04 
       9.660709453356e-03       2.172380211826e+04 
       9.788656548476e-03       2.184126988888e+04 
       9.916651348948e-03       2.195562502645e+04 
       1.004469279621e-02       2.206703541386e+04 
       1.017277990137e-02       2.217611965750e+04 
       1.030091174145e-02       2.228165623854e+04 
       1.042908745596e-02       2.238428114558e+04 
       1.055730624363e-02       2.248399609694e+04 
       1.068556735948e-02       2.258089357946e+04 
       1.081387011204e-02       2.267538580053e+04 
       1.094221386077e-02       2.276677088512e+04 
       1.107059801365e-02       2.285538871990e+04 
       1.119902202500e-02       2.294129610467e+04 
       1.132748539339e-02       2.302455041390e+04 
       1.145598765974e-02       2.310595194565e+04 
       1.158452840548e-02       2.318401565748e+04 
       1.171310725098e-02       2.325947648573e+04 
       1.184172385390e-02       2.333237054887e+04 
       1.197037790784e-02       2.340274057273e+04 
       1.209906914095e-02       2.347107632336e+04 
       1.222779731470e-02       2.353653430371e+04 
       1.235656222276e-02       2.359952415425e+04 
       1.248536368985e-02       2.366015682230e+04 
       1.261420157081e-02       2.371842910151e+04 
       1.274307574966e-02       2.377434468787e+04 
       1.287198613871e-02       2.382882529398e+04 
       1.300093267782e-02       2.388020991484e+04 
       1.312991533361e-02       2.392934342427e+04 
       1.325893409881e-02       2.397620773985e+04 
       1.338798899163e-02       2.402098116454e+04 
       1.351708005517e-02       2.406353130420e+04 
       1.364620735690e-02       2.410438350853e+04 
       1.377537098817e-02       2.414267960880e+04 
       1.390457106377e-02       2.417886869189e+04 
       1.403380772152e-02       2.421295516821e+04 
       1.416308112189e-02       2.424503371454e+04 
       1.429239144768e-02       2.427506058716e+04 
       1.442173890372e-02       2.430406816699e+04 
       1.455112371661e-02       2.433025427070e+04 
       1.468054613448e-02       2.435449170689e+04 
       1.477104874446e-02       2.437028621450e+04 
       1.481000642676e-02       2.437680378784e+04 
       1.493950488406e-02       2.439722875743e+04 
       1.506904181793e-02       2.441579485734e+04 
       1.519861756085e-02       2.443248094086e+04 
       1.532823246602e-02       2.444785001223e+04 
       1.545788690735e-02       2.446096760889e+04 
       1.558758127939e-02       2.447232742175e+04 
       1.571731599731e-02       2.448192360101e+04 
       1.584709149685e-02       2.448981474612e+04 
       1.597690823438e-02       2.449595529416e+04 
       1.610676668692e-02       2.450043363375e+04 
       1.623666735219e-02       2.450424867324e+04 
       1.636661074866e-02       2.450549721253e+04 
       1.649659741567e-02       2.450510417242e+04 
       1.662662791353e-02       2.450317026625e+04 
       1.675670282366e-02       2.449961899858e+04 
       1.688682274871e-02       2.449455139426e+04 
       1.701698831274e-02       2.448795860409e+04 
       1.714720016139e-02       2.447982163699e+04 
       1.727745896210e-02       2.447073514797e+04 
       1.740776540429e-02       2.445971654279e+04 
       1.753812019963e-02       2.444726702935e+04 
       1.766852408227e-02       2.443336104815e+04 
       1.779897780909e-02       2.441806759891e+04 
       1.792948216001e-02       2.440143230970e+04 
       1.806003793826e-02       2.438340325135e+04 
       1.819064597073e-02       2.436402143069e+04 
       1.832130710827e-02       2.434438020310e+04 
       1.845202222605e-02       2.432247321229e+04 
       1.858279222393e-02       2.429925720284e+04 
       1.871361802683e-02       2.427479506115e+04 
       1.884450058515e-02       2.424911950210e+04 
       1.897544087516e-02       2.422223920658e+04 
       1.910643989945e-02       2.419415491640e+04 
       1.923749868737e-02       2.416488717309e+04 
       1.936861829552e-02       2.413442667962e+04 
       1.949979980822e-02       2.410337922799e+04 
       1.963104433801e-02       2.407071942252e+04 
       1.976235302620e-02       2.403690486220e+04 
       1.989372704337e-02       2.400205677948e+04 
       2.002516758998e-02       2.396613818301e+04 
       2.015667589692e-02       2.392912555087e+04 
       2.028825322612e-02       2.389113872395e+04 
       2.041990087119e-02       2.385206489060e+04 
       2.055162015802e-02       2.381206164494e+04 
       2.068341244550e-02       2.377208414286e+04 
       2.081527912617e-02       2.373013362445e+04 
       2.094722162692e-02       2.368727104658e+04 
       2.107924140977e-02       2.364346235155e+04 
       2.121133997258e-02       2.359875412915e+04 
       2.134351884984e-02       2.355316908616e+04 
       2.147577961350e-02       2.350665555041e+04 
       2.160812387376e-02       2.345933317061e+04 
       2.174055327997e-02       2.341116495371e+04 
       2.187306952147e-02       2.336211174175e+04 
       2.200567432853e-02       2.331281562772e+04 
       2.213836947328e-02       2.326216941790e+04 
       2.227115677070e-02       2.321080015015e+04 
       2.240403807957e-02       2.315861530018e+04 
       2.253701530355e-02       2.310571704342e+04 
       2.267009039221e-02       2.305204427281e+04 
       2.280326534217e-02       2.299768834386e+04 
       2.293654219818e-02       2.294258589427e+04 
       2.306992305429e-02       2.288682891429e+04 
       2.320341005511e-02       2.283040419174e+04 
       2.333700539697e-02       2.277325598586e+04 
       2.347071132927e-02       2.271656547886e+04 
       2.360453015576e-02       2.265816904494e+04 
       2.373846423590e-02       2.259920164967e+04 
       2.387251598628e-02       2.253959181041e+04 
       2.400668788207e-02       2.247943378247e+04 
       2.414098245851e-02       2.241865379210e+04 
       2.427540231245e-02       2.235735105670e+04 
       2.440995010395e-02       2.229549775513e+04 
       2.454462855794e-02       2.223305278735e+04 
       2.467944046586e-02       2.217013651710e+04 
       2.481438868750e-02       2.210666011490e+04 
       2.494947615274e-02       2.204323094820e+04 
       2.508470586346e-02       2.197880239314e+04 
       2.522008089546e-02       2.191392343440e+04 
       2.535560440046e-02       2.184855391964e+04 
       2.549127960814e-02       2.178275062769e+04 
       2.562710982834e-02       2.171651867628e+04 
       2.576309845317e-02       2.164987496177e+04 
       2.589924895938e-02       2.158276176995e+04 
       2.603556491067e-02       2.151531498549e+04 
       2.617204996013e-02       2.144740286689e+04 
       2.630870785278e-02       2.137916879163e+04 
       2.644554242816e-02       2.131053567556e+04 
       2.658255762308e-02       2.124257196085e+04 
       2.671975747436e-02       2.117326330091e+04 
       2.685714612175e-02       2.110362212631e+04 
       2.699472781095e-02       2.103367333898e+04 
       2.713250689671e-02       2.096337727119e+04 
       2.727048784602e-02       2.089279687578e+04 
       2.740867524149e-02       2.082193085201e+04 
       2.754707378479e-02       2.075075487250e+04 
       2.768568830025e-02       2.067930942389e+04 
       2.782452373856e-02       2.060762386528e+04 
       2.796358518068e-02       2.053564815848e+04 
       2.810287784177e-02       2.046346477950e+04 
       2.824240707545e-02       2.039147519433e+04 
       2.838217837801e-02       2.031883581981e+04 
       2.852219739301e-02       2.024594275881e+04 
       2.866246991582e-02       2.017283794043e+04 
       2.880300189858e-02       2.009955584744e+04 
       2.894379945516e-02       2.002608925441e+04 
       2.908486886640e-02       1.995239059410e+04 
       2.922621658559e-02       1.987855044985e+04 
       2.936784924412e-02       1.980454053721e+04 
       2.950977365734e-02       1.973033344255e+04 
       2.965199683076e-02       1.965602016349e+04 
       2.979452596641e-02       1.958151354720e+04 
       2.993736846947e-02       1.950692932563e+04 
       3.008053195529e-02       1.943311329018e+04 
       3.022402425653e-02       1.935824777187e+04 
       3.036785343079e-02       1.928328984995e+04 
       3.051202776841e-02       1.920822824340e+04 
       3.065655580076e-02       1.913303296078e+04 
       3.080144630872e-02       1.905774766439e+04 
       3.094670833173e-02       1.898240693647e+04 
       3.109235117708e-02       1.890692444623e+04 
       3.123838442975e-02       1.883140794620e+04 
       3.138481796257e-02       1.875580671344e+04 
       3.153166194695e-02       1.868013434006e+04 
       3.167892686409e-02       1.860441121973e+04 
       3.182662351666e-02       1.852859144157e+04 
       3.197476304108e-02       1.845276718882e+04 
       3.212335692040e-02       1.837733664993e+04 
       3.227241699777e-02       1.830140006170e+04 
       3.242195549053e-02       1.822546103881e+04 
       3.257198500510e-02       1.814948289134e+04 
       3.272251855251e-02       1.807346676459e+04 
       3.287356956474e-02       1.799741005044e+04 
       3.302515191190e-02       1.792137476022e+04 
       3.317727992030e-02       1.784527577578e+04 
       3.332996839138e-02       1.776921539202e+04 
       3.348323262173e-02       1.769311926700e+04 
       3.363708842412e-02       1.761698008751e+04 
       3.379155214958e-02       1.754090027762e+04 
       3.394664071085e-02       1.746478578367e+04 
       3.410237160689e-02       1.738869465273e+04 
       3.425876294891e-02       1.731350933185e+04 
       3.441583348773e-02       1.723746860448e+04 
       3.457360264280e-02       1.716142405584e+04 
       3.473209053274e-02       1.708539468456e+04 
       3.489131800774e-02       1.700940348850e+04 
       3.505130668376e-02       1.693339664252e+04 
       3.521207897886e-02       1.685742919071e+04 
       3.537365815154e-02       1.678149922095e+04 
       3.553606834152e-02       1.670555952141e+04 
       3.569933461296e-02       1.662970717461e+04 
       3.586348300030e-02       1.655382065461e+04 
       3.602854055705e-02       1.647797300897e+04 
       3.619453540759e-02       1.640216620457e+04 
       3.636149680235e-02       1.632637880995e+04 
       3.652945517646e-02       1.625103486332e+04 
       3.669844221240e-02       1.617529987155e+04 
       3.686849090667e-02       1.609961883406e+04 
       3.703963564106e-02       1.602392262135e+04 
       3.721191225868e-02       1.594827674679e+04 
       3.738535814534e-02       1.587266411607e+04 
       3.756001231658e-02       1.579704099729e+04 
       3.773591551089e-02       1.572147966183e+04 
       3.791311028961e-02       1.564586479607e+04 
       3.809164114424e-02       1.557032451373e+04 
       3.827155461151e-02       1.549480526898e+04 
       3.845289939728e-02       1.541925629393e+04 
       3.863572650975e-02       1.534376650502e+04 
       3.882008940302e-02       1.526826795816e+04 
       3.900604413197e-02       1.519359815538e+04 
       3.919364951933e-02       1.511807522637e+04 
       3.938296733649e-02       1.504259537434e+04 
       3.957406249892e-02       1.496708428615e+04 
       3.976700327811e-02       1.489156959564e+04 
       3.996186153136e-02       1.481603463686e+04 
       4.015871295146e-02       1.474044498750e+04 
       4.035763733812e-02       1.466486319127e+04 
       4.055871889378e-02       1.458920752028e+04 
       4.076204654602e-02       1.451351289363e+04 
       4.096771429982e-02       1.443777463001e+04 
       4.117582162284e-02       1.436198188466e+04 
       4.138647386745e-02       1.428607349524e+04 
       4.159978273381e-02       1.421048830834e+04 
       4.181586677885e-02       1.413446984870e+04 
       4.203485197649e-02       1.405830001034e+04 
       4.225687233551e-02       1.398204926820e+04 
       4.248207058221e-02       1.390564067825e+04 
       4.271059891591e-02       1.382912262015e+04 
       4.294261984691e-02       1.375238387606e+04 
       4.317830712756e-02       1.367553306929e+04 
       4.341784678920e-02       1.359848593204e+04 
       4.366143829916e-02       1.352127739590e+04 
       4.390929585495e-02       1.344378033040e+04 
       4.416164983507e-02       1.336604846681e+04 
       4.441874842941e-02       1.328879293625e+04 
       4.468085947598e-02       1.321055463013e+04 
       4.494827253559e-02       1.313197168135e+04 
       4.522130124165e-02       1.305308336629e+04 
       4.550028596892e-02       1.297378516651e+04 
       4.578559687361e-02       1.289412697562e+04 
       4.607763736700e-02       1.281399220635e+04 
       4.637684809687e-02       1.273342319506e+04 
       4.668371152637e-02       1.265233953419e+04 
       4.699875721779e-02       1.257066123692e+04 
       4.732256795181e-02       1.248841945120e+04 
       4.765578684071e-02       1.240583659097e+04 
       4.799912562891e-02       1.232221371189e+04 
       4.835337441816e-02       1.223779442564e+04 
       4.871941310930e-02       1.215251236338e+04 
       4.909822492179e-02       1.206631094330e+04 
       4.949091243960e-02       1.197908518692e+04 
       4.989871674259e-02       1.189068695324e+04 
       5.032304032407e-02       1.180106538313e+04 
       5.076547467429e-02       1.171006895431e+04 
       5.122783363900e-02       1.161823029505e+04 
       5.171219395370e-02       1.152399393881e+04 
       5.222094472376e-02       1.142787321317e+04 
       5.275684808459e-02       1.132957652819e+04 
       5.332311385035e-02       1.122885523782e+04 
       5.392349164873e-02       1.112535768255e+04 
       5.456238482521e-02       1.101901066540e+04 
       5.524499120523e-02       1.090864896617e+04 
       5.597747642477e-02       1.079397516682e+04 
       5.676718552587e-02       1.067422581691e+04 
       5.762289691269e-02       1.054845060394e+04 
       5.855511770064e-02       1.041600008664e+04 
       5.957640744790e-02       1.027404200382e+04 
