# total lensed [l(l+1)/2pi] C_l's (units: [microK]^2)
# for l=2 to 2600, i.e. number of multipoles equal to 2599
#
# -> if you don't want to see such a header, set 'headers' to 'no' in input file
# -> for CMB lensing (d), these are C_l^dd for the deflection field.
#    Remember the conversion factors:
#    C_l^dd (deflection) = l(l+1) C_l^phi-phi
#    C_l^gg (shear/convergence) = 1/4 (l(l+1))^2 C_l^phi-phi
#
# 1:l     2:TT                     3:EE                     4:BB                     5:TE                     6:dd                     7:dT                     8:dE                 
    2       1.027636298179e+03       3.335993269452e-02       1.728686383163e-06       2.699755040037e+00       4.878036057386e-08       3.035630163475e-03      -1.278342820746e-05 
    3       9.717602112452e+02       4.454162635798e-02       3.457725971546e-06       3.086523560367e+00       6.099754415471e-08       3.053479469360e-03      -1.401458250468e-05 
    4       9.187823652328e+02       4.021694896270e-02       5.763670421963e-06       2.926696126389e+00       7.094286615450e-08       2.987153356954e-03      -1.224006166247e-05 
    5       8.788518683095e+02       2.805488186542e-02       8.647014698473e-06       2.524362625595e+00       7.954350798908e-08       2.891049925471e-03      -8.781872708866e-06 
    6       8.512519026857e+02       1.626140869845e-02       1.210839633465e-05       2.055534605729e+00       8.701772925150e-08       2.783802567780e-03      -4.778467556282e-06 
    7       8.332289213568e+02       8.791571626682e-03       1.614860549920e-05       1.625148558413e+00       9.355917341150e-08       2.674469169769e-03      -1.162325520776e-06 
    8       8.225766103408e+02       5.432673987264e-03       2.076859476351e-05       1.282676562243e+00       9.938126431629e-08       2.568360705358e-03       1.451029476458e-06 
    9       8.174274354873e+02       4.259359391487e-03       2.596948752354e-05       1.043315495994e+00       1.046485270393e-07       2.468364342349e-03       2.798401890834e-06 
   10       8.162133249096e+02       3.689410509937e-03       3.175258401675e-05       9.014704992996e-01       1.094304712341e-07       2.375344587799e-03       2.943856021656e-06 
   11       8.182776508009e+02       3.144132794417e-03       3.811936392347e-05       8.396491916930e-01       1.105196764909e-07       2.297128330968e-03       2.202842962725e-06 
   12       8.227271379344e+02       2.691166949911e-03       4.507148464938e-05       8.357331133515e-01       1.141577079801e-07       2.209851557197e-03       9.911489425761e-07 
   13       8.290444285369e+02       2.487253483493e-03       5.261077454898e-05       8.684768424477e-01       1.174191811106e-07       2.133746560616e-03      -2.538345517745e-07 
   14       8.367001984167e+02       2.525860384426e-03       6.073922056098e-05       9.207567220302e-01       1.203454039578e-07       2.054360782552e-03      -1.221305574950e-06 
   15       8.457415600618e+02       2.698467728899e-03       6.945894997760e-05       9.811625590996e-01       1.229713414294e-07       1.982643522694e-03      -1.721884286074e-06 
   16       8.558080969967e+02       2.935687394601e-03       7.877220634807e-05       1.042956895311e+00       1.253283516891e-07       1.915718315068e-03      -1.742997957563e-06 
   17       8.667284622403e+02       3.256536926695e-03       8.868131981093e-05       1.103253489345e+00       1.274428118964e-07       1.851956030460e-03      -1.400812722855e-06 
   18       8.782489152916e+02       3.721668828909e-03       9.918867568717e-05       1.163104260921e+00       1.292873198758e-07       1.789949614208e-03      -8.947306672045e-07 
   19       8.904514872027e+02       4.355219789254e-03       1.102966595090e-04       1.224438489132e+00       1.310316944342e-07       1.731842068155e-03      -3.901103579393e-07 
   20       9.031458899248e+02       5.159902468907e-03       1.220076498732e-04       1.289176825766e+00       1.325360510107e-07       1.677154803747e-03      -6.324001073986e-08 
   21       9.163964281246e+02       6.122381940464e-03       1.343239317815e-04       1.358079135698e+00       1.338878665594e-07       1.626099993306e-03       2.553675646665e-08 
   22       9.301121564653e+02       7.221729629107e-03       1.472476933830e-04       1.430930981164e+00       1.350623891383e-07       1.576647235075e-03      -1.119805825481e-07 
   23       9.442617818352e+02       8.461033134304e-03       1.607809472718e-04       1.505510285351e+00       1.361298747311e-07       1.529086640039e-03      -4.114834783164e-07 
   24       9.586961288499e+02       9.848552456114e-03       1.749255265690e-04       1.578567433361e+00       1.370419497413e-07       1.483166727027e-03      -7.606408820411e-07 
   25       9.735144619597e+02       1.138150349268e-02       1.896830214040e-04       1.647861600365e+00       1.378532019692e-07       1.440114699981e-03      -1.066859674843e-06 
   26       9.887567564831e+02       1.305447083894e-02       2.050547717891e-04       1.711277584281e+00       1.385420404351e-07       1.400401995808e-03      -1.241292738410e-06 
   27       1.004312915377e+03       1.487618483931e-02       2.210418286302e-04       1.767004318053e+00       1.391354243757e-07       1.363055508171e-03      -1.265869354845e-06 
   28       1.019971552328e+03       1.686063438167e-02       2.376449510056e-04       1.813570829773e+00       1.395970627066e-07       1.325889522262e-03      -1.160152077975e-06 
   29       1.035805893221e+03       1.902152847854e-02       2.548646366316e-04       1.851206508109e+00       1.400002005100e-07       1.289540494825e-03      -9.665307280230e-07 
   30       1.051904619250e+03       2.137368091939e-02       2.727010611059e-04       1.880987539591e+00       1.403653366772e-07       1.255079085293e-03      -7.561081523024e-07 
   31       1.068278868755e+03       2.393157719299e-02       2.911540949100e-04       1.904133022302e+00       1.406123882780e-07       1.222889129106e-03      -6.130910039794e-07 
   32       1.084944249509e+03       2.670217674308e-02       3.102234817172e-04       1.920730780082e+00       1.407861846073e-07       1.192917573125e-03      -5.593382676962e-07 
   33       1.101849405271e+03       2.968929820629e-02       3.299086902144e-04       1.930546209085e+00       1.409150843418e-07       1.164214602339e-03      -5.919285657377e-07 
   34       1.118896021330e+03       3.289628403334e-02       3.502089342283e-04       1.933236857937e+00       1.409626652611e-07       1.135306971024e-03      -6.974362352298e-07 
   35       1.136121220699e+03       3.632920884608e-02       3.711234735207e-04       1.927961072809e+00       1.409607958773e-07       1.106616241604e-03      -8.436617543143e-07 
   36       1.153566658437e+03       3.999471123248e-02       3.926513950098e-04       1.913615318481e+00       1.409162788318e-07       1.079029953277e-03      -9.806230799743e-07 
   37       1.171237781059e+03       4.389908791513e-02       4.147916660232e-04       1.889091957248e+00       1.407900047982e-07       1.053200833483e-03      -1.054649734582e-06 
   38       1.189149119580e+03       4.804817122689e-02       4.375436282057e-04       1.853854245473e+00       1.406203713855e-07       1.029338051783e-03      -1.061083984345e-06 
   39       1.207285220136e+03       5.244736516549e-02       4.609066609422e-04       1.807545354957e+00       1.404431239396e-07       1.007205945936e-03      -1.015271659427e-06 
   40       1.225582436371e+03       5.710164223346e-02       4.848800501484e-04       1.749836267823e+00       1.402449769959e-07       9.860725952252e-04      -9.408575352286e-07 
   41       1.243962485987e+03       6.201563767215e-02       5.094631467781e-04       1.680500147470e+00       1.399788893981e-07       9.649948926078e-04      -8.653767190521e-07 
   42       1.262457680381e+03       6.719403674749e-02       5.346559022550e-04       1.599660993105e+00       1.396674442820e-07       9.440710168462e-04      -8.013701773435e-07 
   43       1.281118464102e+03       7.264126614450e-02       5.604585088453e-04       1.507628434312e+00       1.393360703499e-07       9.236392659637e-04      -7.581796746643e-07 
   44       1.299976546155e+03       7.836136307247e-02       5.868712686026e-04       1.404838213621e+00       1.389774617655e-07       9.039307556564e-04      -7.469426282704e-07 
   45       1.319047587434e+03       8.435803237852e-02       6.138946548779e-04       1.291670365116e+00       1.385638395980e-07       8.850751092116e-04      -7.771319847331e-07 
   46       1.338345221274e+03       9.063488489560e-02       6.415294909156e-04       1.167823703092e+00       1.381194189837e-07       8.671833058520e-04      -8.438959877529e-07 
   47       1.357867615131e+03       9.719523667981e-02       6.697768447623e-04       1.032765321618e+00       1.376724388976e-07       8.502581331657e-04      -9.354024209444e-07 
   48       1.377591228194e+03       1.040420233220e-01       6.986379985185e-04       8.858983746406e-01       1.372308298106e-07       8.341429127745e-04      -1.035533356772e-06 
   49       1.397468966497e+03       1.111777845823e-01       7.281144630231e-04       7.265576941819e-01       1.367760484447e-07       8.184960242523e-04      -1.123390321307e-06 
   50       1.417451084378e+03       1.186045066110e-01       7.582078572003e-04       5.541306929510e-01       1.362751245870e-07       8.029166969637e-04      -1.178995292399e-06 
   51       1.437558857413e+03       1.263231337685e-01       7.889194734231e-04       3.684689267735e-01       1.357421108200e-07       7.874485602883e-04      -1.204418563891e-06 
   52       1.457827718173e+03       1.343338977342e-01       8.202506195554e-04       1.695806719238e-01       1.351972112066e-07       7.722320076641e-04      -1.210245595587e-06 
   53       1.478285501610e+03       1.426364267959e-01       8.522027520974e-04      -4.248311737602e-02       1.346474356133e-07       7.573608857591e-04      -1.210402140137e-06 
   54       1.498951670586e+03       1.512297237818e-01       8.847774845007e-04      -2.676272950179e-01       1.340829767771e-07       7.428738872470e-04      -1.222500094377e-06 
   55       1.519838773446e+03       1.601126463766e-01       9.179762901984e-04      -5.057685550209e-01       1.334856289790e-07       7.287773125850e-04      -1.263415598655e-06 
   56       1.540959014979e+03       1.692855383500e-01       9.517995062539e-04      -7.570232960890e-01       1.328689832154e-07       7.151449892568e-04      -1.333212995876e-06 
   57       1.562317961285e+03       1.787489649078e-01       9.862470967623e-04      -1.021563774860e+00       1.322506863437e-07       7.020392252107e-04      -1.425934490290e-06 
   58       1.583911778213e+03       1.885032433736e-01       1.021318932950e-03      -1.299565361122e+00       1.316396992971e-07       6.894758884003e-04      -1.533703441036e-06 
   59       1.605726543859e+03       1.985484406950e-01       1.057014789596e-03      -1.591207265925e+00       1.310340671027e-07       6.774176744944e-04      -1.646538287352e-06 
   60       1.627737561061e+03       2.088843709502e-01       1.093334341454e-03      -1.896673269691e+00       1.304184852675e-07       6.657670867280e-04      -1.752159777754e-06 
   61       1.649919802795e+03       2.195098762543e-01       1.130276989677e-03      -2.216092931140e+00       1.297724399768e-07       6.544082426584e-04      -1.838697363105e-06 
   62       1.672283543472e+03       2.304204865086e-01       1.167841303665e-03      -2.549348146242e+00       1.291054497588e-07       6.433661039727e-04      -1.904353223282e-06 
   63       1.694845541878e+03       2.416102275411e-01       1.206025447015e-03      -2.896224263788e+00       1.284326419347e-07       6.326874789626e-04      -1.950615394719e-06 
   64       1.717618286371e+03       2.530722666216e-01       1.244827327666e-03      -3.256464635718e+00       1.277641740924e-07       6.223932013414e-04      -1.979692359235e-06 
   65       1.740609660615e+03       2.647988872305e-01       1.284244588925e-03      -3.629769456734e+00       1.271040039803e-07       6.124746501595e-04      -1.994581395407e-06 
   66       1.763822609313e+03       2.767814638282e-01       1.324274600497e-03      -4.015794603909e+00       1.264485559793e-07       6.028901339022e-04      -1.999139229401e-06 
   67       1.787254803943e+03       2.890104366236e-01       1.364914449510e-03      -4.414150476303e+00       1.257852808616e-07       5.935611387707e-04      -1.998154985269e-06 
   68       1.810902614131e+03       3.014763280837e-01       1.406161363057e-03      -4.824470544111e+00       1.250988806305e-07       5.844026207738e-04      -1.996302103087e-06 
   69       1.834774703404e+03       3.141730880373e-01       1.448014095282e-03      -5.246635719131e+00       1.243966829108e-07       5.754336729305e-04      -1.994446522229e-06 
   70       1.858880600460e+03       3.270953841657e-01       1.490471806526e-03      -5.680593571977e+00       1.236905854379e-07       5.666932900076e-04      -1.992358273190e-06 
   71       1.883226417150e+03       3.402376216210e-01       1.533533658711e-03      -6.126293256424e+00       1.229895139459e-07       5.582075004474e-04      -1.989732695220e-06 
   72       1.907814624330e+03       3.535939444382e-01       1.577198817406e-03      -6.583686131871e+00       1.222987350938e-07       5.499877112501e-04      -1.986183659434e-06 
   73       1.932643827713e+03       3.671582369474e-01       1.621466453884e-03      -7.052726385811e+00       1.216191169129e-07       5.420289936078e-04      -1.981236574840e-06 
   74       1.957708543722e+03       3.809241251856e-01       1.666335747192e-03      -7.533371656292e+00       1.209463352624e-07       5.343083092938e-04      -1.974321177298e-06 
   75       1.982998975341e+03       3.948849783084e-01       1.711805886215e-03      -8.025583654383e+00       1.202700247782e-07       5.267826778029e-04      -1.964764101398e-06 
   76       2.008505521320e+03       4.090333936191e-01       1.757876608785e-03      -8.529279818561e+00       1.195783691458e-07       5.194059232135e-04      -1.952040267825e-06 
   77       2.034233748561e+03       4.233595401156e-01       1.804549927965e-03      -9.044176723873e+00       1.188759702255e-07       5.121885642817e-04      -1.936624454349e-06 
   78       2.060191755468e+03       4.378525140434e-01       1.851828725775e-03      -9.569919115904e+00       1.181707499329e-07       5.051507776298e-04      -1.919357470698e-06 
   79       2.086385555791e+03       4.525008194531e-01       1.899716256934e-03      -1.010612597013e+01       1.174686324596e-07       4.983042896106e-04      -1.901214972138e-06 
   80       2.112818951533e+03       4.672923590236e-01       1.948216161935e-03      -1.065239011026e+01       1.167731436264e-07       4.916514538151e-04      -1.883315714552e-06 
   81       2.139493405865e+03       4.822144248858e-01       1.997332480120e-03      -1.120827782655e+01       1.160849829734e-07       4.851842993120e-04      -1.866930009055e-06 
   82       2.166407916043e+03       4.972536894450e-01       2.047069662763e-03      -1.177332849418e+01       1.154015678821e-07       4.788835496172e-04      -1.853488376145e-06 
   83       2.193558886319e+03       5.123961962045e-01       2.097432586135e-03      -1.234705419152e+01       1.147165490263e-07       4.727176123945e-04      -1.844590399386e-06 
   84       2.220942371564e+03       5.276279456807e-01       2.148426119300e-03      -1.292897213651e+01       1.140228611535e-07       4.666541982761e-04      -1.841622858531e-06 
   85       2.248561513882e+03       5.429367848534e-01       2.200053716482e-03      -1.351870900982e+01       1.133242473510e-07       4.607008653175e-04      -1.844483868307e-06 
   86       2.276420111553e+03       5.583108155773e-01       2.252318614232e-03      -1.411591330689e+01       1.126265605097e-07       4.548726030550e-04      -1.852559497335e-06 
   87       2.304520271983e+03       5.737378281524e-01       2.305224261478e-03      -1.472022422505e+01       1.119342947449e-07       4.491795778410e-04      -1.865077056154e-06 
   88       2.332862324462e+03       5.892053021485e-01       2.358774325118e-03      -1.533127183338e+01       1.112503411445e-07       4.436266446612e-04      -1.881094304929e-06 
   89       2.361444732916e+03       6.047004072297e-01       2.412972695612e-03      -1.594867724264e+01       1.105757284901e-07       4.382128447884e-04      -1.899488394175e-06 
   90       2.390264008673e+03       6.202100039796e-01       2.467823492578e-03      -1.657205277516e+01       1.099093485975e-07       4.329308892749e-04      -1.918944538490e-06 
   91       2.419314623213e+03       6.357206447256e-01       2.523331070379e-03      -1.720100213474e+01       1.092476659248e-07       4.277666282805e-04      -1.937944423300e-06 
   92       2.448588920932e+03       6.512185743635e-01       2.579500023720e-03      -1.783512057653e+01       1.085844110960e-07       4.226985062393e-04      -1.954754344621e-06 
   93       2.478079504952e+03       6.666898889690e-01       2.636334581340e-03      -1.847399014964e+01       1.079131646913e-07       4.177055408233e-04      -1.967802612199e-06 
   94       2.507786994527e+03       6.821210371267e-01       2.693836670634e-03      -1.911716423737e+01       1.072367485666e-07       4.127945788135e-04      -1.976936808930e-06 
   95       2.537713278481e+03       6.974983958770e-01       2.752007570935e-03      -1.976418099511e+01       1.065600280408e-07       4.079781313198e-04      -1.982426693670e-06 
   96       2.567859093525e+03       7.128081225975e-01       2.810848496709e-03      -2.041456817140e+01       1.058871214605e-07       4.032661297285e-04      -1.984602593500e-06 
   97       2.598223970959e+03       7.280361579941e-01       2.870360594748e-03      -2.106784321017e+01       1.052212682952e-07       3.986656766997e-04      -1.983858936090e-06 
   98       2.628806183381e+03       7.431682290918e-01       2.930544941359e-03      -2.172351335298e+01       1.045646897420e-07       3.941807905228e-04      -1.980657858202e-06 
   99       2.659602691391e+03       7.581898522247e-01       2.991402539563e-03      -2.238107574133e+01       1.039184416782e-07       3.898121428297e-04      -1.975532890331e-06 
  100       2.690609090294e+03       7.730863360269e-01       3.052934316282e-03      -2.304001751887e+01       1.032822598028e-07       3.855567896667e-04      -1.969092717498e-06 
  101       2.721819556807e+03       7.878427844232e-01       3.115141119538e-03      -2.369981593372e+01       1.026543968036e-07       3.814078959247e-04      -1.962025016167e-06 
  102       2.753226795763e+03       8.024440996196e-01       3.178023715639e-03      -2.435993844066e+01       1.020314513923e-07       3.773544531270e-04      -1.955100367322e-06 
  103       2.784821986815e+03       8.168749850936e-01       3.241582786380e-03      -2.501984280344e+01       1.014081890452e-07       3.733809905760e-04      -1.949176245667e-06 
  104       2.816596650146e+03       8.311203486772e-01       3.305819808313e-03      -2.567898498505e+01       1.007794825453e-07       3.694726740205e-04      -1.945017211124e-06 
  105       2.848548645413e+03       8.451665673758e-01       3.370739831898e-03      -2.633684381213e+01       1.001471615676e-07       3.656324367786e-04      -1.942704792982e-06 
  106       2.880676887588e+03       8.590003997786e-01       3.436349074294e-03      -2.699289984853e+01       9.951464417049e-08       3.618667581130e-04      -1.942115962535e-06 
  107       2.912979468500e+03       8.726086085217e-01       3.502654077600e-03      -2.764662809037e+01       9.888489856568e-08       3.581804387120e-04      -1.943094766030e-06 
