# Matter power spectrum P(k) at redshift z=3
# for k=1.04825e-05 to 1.4771 h/Mpc,
# number of wavenumbers equal to 615
#    1:k (h/Mpc)              2:P (Mpc/h)^3        
       1.048254664621e-05       4.693876081054e+00 
       2.338179984878e-05       1.019873461328e+01 
       3.632659207851e-05       1.561816197983e+01 
       4.935185182018e-05       2.100623933023e+01 
       6.249308732615e-05       2.639445234857e+01 
       7.578670413046e-05       3.180682605178e+01 
       8.927033274875e-05       3.726418582465e+01 
       1.029831709337e-04       4.278591374950e+01 
       1.169663448892e-04       4.839085738294e+01 
       1.312632938796e-04       5.409788758047e+01 
       1.459201826764e-04       5.992629199663e+01 
       1.609863462238e-04       6.589608741546e+01 
       1.765147707196e-04       7.202829029093e+01 
       1.925626149317e-04       7.834516753261e+01 
       2.091917748988e-04       8.487048000004e+01 
       2.264694940621e-04       9.162972510095e+01 
       2.444690191782e-04       9.865038198400e+01 
       2.632702998395e-04       1.059621611144e+02 
       2.829607258069e-04       1.135972540832e+02 
       3.036358912995e-04       1.215905821878e+02 
       3.254003685065e-04       1.299800341674e+02 
       3.483684634740e-04       1.388066817687e+02 
       3.726649157973e-04       1.481149578881e+02 
       3.984254889608e-04       1.579495581347e+02 
       4.257973807509e-04       1.683680125097e+02 
       4.549393634795e-04       1.794222052330e+02 
       4.860215432119e-04       1.911700970955e+02 
       5.192246084185e-04       2.036723104099e+02 
       5.547384257095e-04       2.169913790899e+02 
       5.927598395669e-04       2.311906839805e+02 
       6.334895518072e-04       2.463286816146e+02 
       6.771280029241e-04       2.624740175489e+02 
       7.238702578713e-04       2.796787439583e+02 
       7.739000147550e-04       2.980081117874e+02 
       8.273829990716e-04       3.174657299617e+02 
       8.844601595396e-04       3.381179376845e+02 
       9.452412134932e-04       3.599432879790e+02 
       1.009799162769e-03       3.829424305627e+02 
       1.078166381479e-03       4.071098817146e+02 
       1.150332748807e-03       4.323701323782e+02 
       1.226246074705e-03       4.587631005922e+02 
       1.305814785275e-03       4.861597313464e+02 
       1.388912557478e-03       5.144991951387e+02 
       1.475384379231e-03       5.436599752552e+02 
       1.477104874446e-03       5.442371674357e+02 
       1.565053400271e-03       5.736208498192e+02 
       1.657727940697e-03       6.042148091994e+02 
       1.753208117917e-03       6.353503046413e+02 
       1.851291701885e-03       6.669522240095e+02 
       1.951778973167e-03       6.989175165283e+02 
       2.054476506821e-03       7.311615283200e+02 
       2.159199919234e-03       7.636110301737e+02 
       2.265775689443e-03       7.961828237142e+02 
       2.374042204622e-03       8.288125102618e+02 
       2.483850189724e-03       8.614339522815e+02 
       2.595062672882e-03       8.939890623014e+02 
       2.707554619386e-03       9.264219065159e+02 
       2.821212343976e-03       9.586914825476e+02 
       2.935932787938e-03       9.907715977455e+02 
       3.051622726387e-03       1.022624569058e+03 
       3.168197953199e-03       1.054207361464e+03 
       3.285582476624e-03       1.085502627429e+03 
       3.403707747366e-03       1.116500115359e+03 
       3.522511932538e-03       1.147159893060e+03 
       3.641939242739e-03       1.177472632703e+03 
       3.761939315212e-03       1.207418508559e+03 
       3.882466653097e-03       1.237012902977e+03 
       4.003480118864e-03       1.266211719534e+03 
       4.124942478875e-03       1.295015509134e+03 
       4.246819995353e-03       1.323431275976e+03 
       4.369082061775e-03       1.351449436211e+03 
       4.491700877664e-03       1.379056645779e+03 
       4.614651158877e-03       1.406259003788e+03 
       4.737909879710e-03       1.433034525311e+03 
       4.861456043403e-03       1.459388040848e+03 
       4.985270477916e-03       1.485230390450e+03 
       5.109335654154e-03       1.509294821396e+03 
       5.233635524105e-03       1.538494471137e+03 
       5.358155376596e-03       1.560861921972e+03 
       5.482881708679e-03       1.587039448726e+03 
       5.607802110830e-03       1.608127225520e+03 
       5.732905164382e-03       1.629263786941e+03 
       5.858180349800e-03       1.658719125210e+03 
       5.983617964546e-03       1.678800573439e+03 
       6.109209049462e-03       1.703147386472e+03 
       6.234945322695e-03       1.722465901720e+03 
       6.360819120333e-03       1.741738793220e+03 
       6.486823342994e-03       1.769091582234e+03 
       6.612951407714e-03       1.787753091213e+03 
       6.739197204563e-03       1.805829579486e+03 
       6.865555057466e-03       1.827788134408e+03 
       6.992019688779e-03       1.845517760334e+03 
       7.118586187227e-03       1.863332824537e+03 
       7.245249978844e-03       1.886615954625e+03 
       7.372006800609e-03       1.903852725705e+03 
       7.498852676487e-03       1.920393127249e+03 
       7.625783895646e-03       1.936958570160e+03 
       7.752796992618e-03       1.955741487905e+03 
       7.879888729216e-03       1.971730269925e+03 
       8.007056078031e-03       1.987388828966e+03 
       8.134296207359e-03       2.006978610312e+03 
       8.261606467407e-03       2.022055139920e+03 
       8.388984377678e-03       2.036798900374e+03 
       8.516427615397e-03       2.051396713991e+03 
       8.643934004909e-03       2.067180322543e+03 
       8.771501507930e-03       2.081173589163e+03 
       8.899128214596e-03       2.094751697917e+03 
       9.026812335230e-03       2.108221360962e+03 
       9.154552192757e-03       2.123996441144e+03 
       9.282346215719e-03       2.136882996859e+03 
       9.410192931830e-03       2.149251088012e+03 
       9.538090962033e-03       2.161461345560e+03 
       9.666039015006e-03       2.174561811004e+03 
       9.794035882085e-03       2.186155984861e+03 
       9.922080432571e-03       2.197532715118e+03 
       1.005017160938e-02       2.208681434685e+03 
       1.017830842503e-02       2.221302206830e+03 
       1.030648995789e-02       2.231846331632e+03 
       1.043471534875e-02       2.242124843906e+03 
       1.056298379758e-02       2.252115046847e+03 
       1.069129456059e-02       2.261815369298e+03 
       1.081964694742e-02       2.272045623835e+03 
       1.094804031862e-02       2.281253727800e+03 
       1.107647408324e-02       2.290195029052e+03 
       1.120494769659e-02       2.298897808317e+03 
       1.133346065822e-02       2.307309990576e+03 
       1.146201250998e-02       2.316655119115e+03 
       1.159060283423e-02       2.324578137742e+03 
       1.171923125219e-02       2.332285748114e+03 
       1.184789742240e-02       2.339716170638e+03 
       1.197660103927e-02       2.346904479325e+03 
       1.210534183176e-02       2.354380196171e+03 
       1.223411956214e-02       2.361099031732e+03 
       1.236293402481e-02       2.367587269355e+03 
       1.249178504526e-02       2.373839553116e+03 
       1.262067247906e-02       2.379853096660e+03 
       1.274959621093e-02       2.385647108146e+03 
       1.287855615389e-02       2.391955795477e+03 
       1.300755224847e-02       2.397310514870e+03 
       1.313658446197e-02       2.402447309670e+03 
       1.326565278778e-02       2.407353253915e+03 
       1.339475724477e-02       2.412051132036e+03 
       1.352389787666e-02       2.416549804589e+03 
       1.365307475159e-02       2.421114468418e+03 
       1.378228796151e-02       2.425186647202e+03 
       1.391153762183e-02       2.429040491427e+03 
       1.404082387100e-02       2.432686956377e+03 
       1.417014687008e-02       2.436179504606e+03 
       1.429950680249e-02       2.439426431111e+03 
       1.442890387366e-02       2.442496368357e+03 
       1.455833831078e-02       2.445812184314e+03 
       1.468781036258e-02       2.448507380121e+03 
       1.477104874446e-02       2.450128010309e+03 
       1.481732029910e-02       2.451004695657e+03 
       1.494686841151e-02       2.453319363319e+03 
       1.507645501199e-02       2.455452680994e+03 
       1.520608043359e-02       2.457384874121e+03 
       1.533574503012e-02       2.459324115460e+03 
       1.546544917607e-02       2.460913305746e+03 
       1.559519326660e-02       2.462334522761e+03 
       1.572497771746e-02       2.463577017001e+03 
       1.585480296501e-02       2.464658182637e+03 
       1.598466946622e-02       2.465550643802e+03 
       1.611457769873e-02       2.466286223396e+03 
       1.624452816084e-02       2.466866505154e+03 
       1.637452137167e-02       2.467552303938e+03 
       1.650455787117e-02       2.467797194793e+03 
       1.663463822029e-02       2.467901836256e+03 
       1.676476300106e-02       2.467834620044e+03 
       1.689493281679e-02       2.467627694867e+03 
       1.702514829217e-02       2.467268297592e+03 
       1.715541007351e-02       2.466745050644e+03 
       1.728571882891e-02       2.466191587543e+03 
       1.741607524846e-02       2.465389047160e+03 
       1.754648004451e-02       2.464445699347e+03 
       1.767693395188e-02       2.463348485918e+03 
       1.780743772817e-02       2.462118801954e+03 
       1.793799215400e-02       2.460759198491e+03 
       1.806859803331e-02       2.459255279994e+03 
       1.819925619373e-02       2.457617704336e+03 
       1.832996748684e-02       2.456019309601e+03 
       1.846073278856e-02       2.454128387321e+03 
       1.859155299953e-02       2.452100834078e+03 
       1.872242904542e-02       2.449953091053e+03 
       1.885336187744e-02       2.447683940107e+03 
       1.898435247265e-02       2.445286922735e+03 
       1.911540183445e-02       2.442776416403e+03 
       1.924651099304e-02       2.440144274552e+03 
       1.937768100586e-02       2.437392593626e+03 
       1.950891295808e-02       2.434597150597e+03 
       1.964020796312e-02       2.431626549070e+03 
       1.977156716318e-02       2.428535316235e+03 
       1.990299172976e-02       2.425343646992e+03 
       2.003448286424e-02       2.422043791982e+03 
       2.016604179845e-02       2.418631651542e+03 
       2.029766979531e-02       2.415126016441e+03 
       2.042936814937e-02       2.411507002768e+03 
       2.056113818757e-02       2.407797464444e+03 
       2.069298126979e-02       2.404086732078e+03 
       2.082489878961e-02       2.400175720829e+03 
       2.095689217502e-02       2.396173793702e+03 
       2.108896288909e-02       2.392074852500e+03 
       2.122111243081e-02       2.387886994849e+03 
       2.135334233581e-02       2.383610717095e+03 
       2.148565417718e-02       2.379239651213e+03 
       2.161804956632e-02       2.374787929055e+03 
       2.175053015376e-02       2.370251059070e+03 
       2.188309763011e-02       2.365623877409e+03 
       2.201575372688e-02       2.360960601676e+03 
       2.214850021750e-02       2.356172097352e+03 
       2.228133891825e-02       2.351310280946e+03 
       2.241427168928e-02       2.346365692228e+03 
       2.254730043562e-02       2.341349307776e+03 
       2.268042710825e-02       2.336254724240e+03 
       2.281365370523e-02       2.331091461208e+03 
       2.294698227277e-02       2.325851924081e+03 
       2.308041490646e-02       2.320546864481e+03 
       2.321395375242e-02       2.315174172628e+03 
       2.334760100859e-02       2.309728812929e+03 
       2.348135892596e-02       2.304284527820e+03 
       2.361522980994e-02       2.298711517750e+03 
       2.374921602170e-02       2.293077824343e+03 
       2.388331997955e-02       2.287379936917e+03 
       2.401754416044e-02       2.281625391982e+03 
       2.415189110142e-02       2.275808230462e+03 
       2.428636340122e-02       2.269937308426e+03 
       2.442096372180e-02       2.264010202887e+03 
       2.455569479003e-02       2.258024361685e+03 
       2.469055939937e-02       2.251988407500e+03 
       2.482556041166e-02       2.245898075376e+03 
       2.496070075888e-02       2.239782533196e+03 
       2.509598344506e-02       2.233592105859e+03 
       2.523141154822e-02       2.227354232085e+03 
       2.536698822234e-02       2.221067747895e+03 
       2.550271669944e-02       2.214735902241e+03 
       2.563860029172e-02       2.208359609655e+03 
       2.577464239375e-02       2.201941164293e+03 
       2.591084648478e-02       2.195476434785e+03 
       2.604721613108e-02       2.188974107576e+03 
       2.618375498839e-02       2.182427871626e+03 
       2.632046680443e-02       2.175844893107e+03 
       2.645735542154e-02       2.169223026163e+03 
       2.659442477936e-02       2.162604858099e+03 
       2.673167891765e-02       2.155910584675e+03 
       2.686912197919e-02       2.149182482864e+03 
       2.700675821274e-02       2.142421071310e+03 
       2.714459197624e-02       2.135624500369e+03 
       2.728262773995e-02       2.128799657186e+03 
       2.742087008982e-02       2.121943206790e+03 
       2.755932373097e-02       2.115056200706e+03 
       2.769799349127e-02       2.108140671447e+03 
       2.783688432506e-02       2.101199037659e+03 
       2.797600131702e-02       2.094229040366e+03 
       2.811534968619e-02       2.087235288557e+03 
       2.825493479011e-02       2.080230221811e+03 
       2.839476212919e-02       2.073187800816e+03 
       2.853483735114e-02       2.066121091986e+03 
       2.867516625567e-02       2.059032178935e+03 
       2.881575479935e-02       2.051923253350e+03 
       2.895660910061e-02       2.044794229981e+03 
       2.909773544501e-02       2.037643850421e+03 
       2.923914029069e-02       2.030476231211e+03 
       2.938083027402e-02       2.023290863062e+03 
       2.952281221550e-02       2.016086470377e+03 
       2.966509312595e-02       2.008868549758e+03 
       2.980768021285e-02       2.001632904342e+03 
       2.995058088703e-02       1.994384494879e+03 
       3.009380276963e-02       1.987147157598e+03 
       3.023735369933e-02       1.979870277628e+03 
       3.038124173990e-02       1.972581710467e+03 
       3.052547518807e-02       1.965281216791e+03 
       3.067006258177e-02       1.957968503561e+03 
       3.081501270871e-02       1.950645474864e+03 
       3.096033461535e-02       1.943313447783e+03 
       3.110603761624e-02       1.935970612929e+03 
       3.125213130384e-02       1.928620850050e+03 
       3.139862555874e-02       1.921262140583e+03 
       3.154553056036e-02       1.913895958358e+03 
       3.169285679818e-02       1.906523418229e+03 
       3.184061508344e-02       1.899143370062e+03 
       3.198881656145e-02       1.891758949330e+03 
       3.213747272441e-02       1.884379499897e+03 
       3.228659542499e-02       1.876983989773e+03 
       3.243619689037e-02       1.869585635431e+03 
       3.258628973716e-02       1.862183001062e+03 
       3.273688698697e-02       1.854776842102e+03 
       3.288800208273e-02       1.847367404193e+03 
       3.303964890593e-02       1.839956743806e+03 
       3.319184179463e-02       1.832542743966e+03 
       3.334459556255e-02       1.825127906494e+03 
       3.349792551896e-02       1.817711775923e+03 
       3.365184748981e-02       1.810293942276e+03 
       3.380637783987e-02       1.802877543483e+03 
       3.396153349609e-02       1.795459859707e+03 
       3.411733197227e-02       1.788042439413e+03 
       3.427379139502e-02       1.780645322385e+03 
       3.443093053121e-02       1.773230194065e+03 
       3.458876881698e-02       1.765815683962e+03 
       3.474732638834e-02       1.758402495657e+03 
       3.490662411360e-02       1.750991530186e+03 
       3.506668362764e-02       1.743581487802e+03 
       3.522752736820e-02       1.736173967477e+03 
       3.538917861438e-02       1.728769215446e+03 
       3.555166152736e-02       1.721365955941e+03 
       3.571500119373e-02       1.713966817153e+03 
       3.587922367139e-02       1.706568898905e+03 
       3.604435603838e-02       1.699174116331e+03 
       3.621042644474e-02       1.691782596238e+03 
       3.637746416773e-02       1.684393855537e+03 
       3.654549967067e-02       1.677016240784e+03 
       3.671456466552e-02       1.669632895896e+03 
       3.688469217972e-02       1.662253967635e+03 
       3.705591662752e-02       1.654877348864e+03 
       3.722827388614e-02       1.647504843746e+03 
       3.740180137722e-02       1.640134882087e+03 
       3.757653815400e-02       1.632766858093e+03 
       3.775252499460e-02       1.625403074672e+03 
       3.792980450216e-02       1.618041131094e+03 
       3.810842121216e-02       1.610682369622e+03 
       3.828842170778e-02       1.603326266584e+03 
       3.846985474388e-02       1.595971627697e+03 
       3.865277138042e-02       1.588620131252e+03 
       3.883722512625e-02       1.581269987575e+03 
       3.902327209415e-02       1.573936166972e+03 
       3.921097116823e-02       1.566588602160e+03 
       3.940038418488e-02       1.559242597552e+03 
       3.959157612861e-02       1.551896788594e+03 
       3.978461534421e-02       1.544551357167e+03 
       3.997957376694e-02       1.537205712185e+03 
       4.017652717251e-02       1.529858785563e+03 
       4.037555544907e-02       1.522511482302e+03 
       4.057674289332e-02       1.515161679323e+03 
       4.078017853354e-02       1.507809616795e+03 
       4.098595648238e-02       1.500454833024e+03 
       4.119417632274e-02       1.493096549206e+03 
       4.140494353052e-02       1.485732955509e+03 
       4.161836993847e-02       1.478371205224e+03 
       4.183457424601e-02       1.470997179278e+03 
       4.205368258042e-02       1.463616296253e+03 
       4.227582911578e-02       1.456227750956e+03 
       4.250115675682e-02       1.448829813892e+03 
       4.272981789577e-02       1.441422503655e+03 
       4.296197525185e-02       1.434002738024e+03 
       4.319780280406e-02       1.426571779219e+03 
       4.343748683001e-02       1.419126923259e+03 
       4.368122706517e-02       1.411667131791e+03 
       4.392923799954e-02       1.404190697534e+03 
       4.418175033131e-02       1.396695637825e+03 
       4.443901260048e-02       1.389192321887e+03 
       4.470129302936e-02       1.381655870263e+03 
       4.496888160158e-02       1.374094874540e+03 
       4.524209241673e-02       1.366508339127e+03 
       4.552126636492e-02       1.358892522581e+03 
       4.580677417353e-02       1.351246282719e+03 
       4.609901988850e-02       1.343565446277e+03 
       4.639844486491e-02       1.335848382842e+03 
       4.670553235641e-02       1.328091141327e+03 
       4.702081281151e-02       1.320289519364e+03 
       4.734487000769e-02       1.312440955299e+03 
       4.767834818211e-02       1.304545288090e+03 
       4.802196035314e-02       1.296587970303e+03 
       4.837649807070e-02       1.288568488229e+03 
       4.874284288813e-02       1.280481126120e+03 
       4.912197991835e-02       1.272319795807e+03 
       4.951501392394e-02       1.264076950654e+03 
       4.992318850272e-02       1.255743709292e+03 
       5.034790907146e-02       1.247311716911e+03 
       5.079077053096e-02       1.238770098695e+03 
       5.125359072545e-02       1.230116977903e+03 
       5.173845110201e-02       1.221317183061e+03 
       5.224774634636e-02       1.212365151111e+03 
       5.278424523754e-02       1.203240482009e+03 
       5.335116553932e-02       1.193920451240e+03 
       5.395226643761e-02       1.184376803189e+03 
       5.459196282017e-02       1.174580427848e+03 
       5.527546649907e-02       1.164479088042e+03 
       5.600896009461e-02       1.154024827137e+03 
       5.679980927073e-02       1.143150951875e+03 
       5.765681737904e-02       1.131771888571e+03 
       5.859052143588e-02       1.119784689249e+03 
       5.961351617832e-02       1.107023712905e+03 
