# total [l(l+1)/2pi] C_l's (units: [microK]^2)
# for l=2 to 3100, i.e. number of multipoles equal to 3099
#
# -> if you don't want to see such a header, set 'headers' to 'no' in input file
# -> for CMB lensing (d), these are C_l^dd for the deflection field.
#    Remember the conversion factors:
#    C_l^dd (deflection) = l(l+1) C_l^phi-phi
#    C_l^gg (shear/convergence) = 1/4 (l(l+1))^2 C_l^phi-phi
#
# 1:l     2:TT                     3:EE                     4:BB                     5:TE                     6:dd                     7:dT                     8:dE                 
    2       1.029839892182e+03       3.319443917524e-02       0.000000000000e+00       2.717083855315e+00       4.901529699781e-08       3.026521996212e-03      -1.273294013316e-05 
    3       9.727861629443e+02       4.445089667671e-02       0.000000000000e+00       3.097422594243e+00       6.020998864238e-08       3.038256786787e-03      -1.400728245562e-05 
    4       9.192927174931e+02       4.031241106934e-02       0.000000000000e+00       2.938448274676e+00       6.981836816250e-08       2.970706842040e-03      -1.227722903274e-05 
    5       8.789686000875e+02       2.825391016162e-02       0.000000000000e+00       2.536654961490e+00       7.816343584046e-08       2.874823417449e-03      -8.856438933729e-06 
    6       8.514894174090e+02       1.643795433437e-02       0.000000000000e+00       2.066463755803e+00       8.543788674193e-08       2.769662281375e-03      -4.876300867128e-06 
    7       8.340716062396e+02       8.882288519128e-03       0.000000000000e+00       1.634867795627e+00       9.183499826688e-08       2.664326005502e-03      -1.262279484103e-06 
    8       8.231317646768e+02       5.447845642509e-03       0.000000000000e+00       1.290850880842e+00       9.747664917814e-08       2.562775643405e-03       1.371643121278e-06 
    9       8.177559515008e+02       4.241259660791e-03       0.000000000000e+00       1.049486779664e+00       1.024693327041e-07       2.467249521865e-03       2.756426213491e-06 
   10       8.173046055475e+02       3.668208844847e-03       0.000000000000e+00       9.060471796261e-01       1.069205577428e-07       2.378135867968e-03       2.941628879293e-06 
   11       8.196011044409e+02       3.124188744827e-03       0.000000000000e+00       8.434163107561e-01       1.086543337387e-07       2.304165111381e-03       2.231232811266e-06 
   12       8.236132877968e+02       2.664060774842e-03       0.000000000000e+00       8.380941815029e-01       1.121787136471e-07       2.216797582704e-03       1.027718195899e-06 
   13       8.297042998083e+02       2.449793296402e-03       0.000000000000e+00       8.696654154255e-01       1.153053359497e-07       2.139677260153e-03      -2.180662724961e-07 
   14       8.378103073354e+02       2.480402385050e-03       0.000000000000e+00       9.232900271031e-01       1.180813059241e-07       2.068563902861e-03      -1.184955244520e-06 
   15       8.467004548060e+02       2.646467406323e-03       0.000000000000e+00       9.846565459805e-01       1.206220268179e-07       1.995592958842e-03      -1.693546751976e-06 
   16       8.562713047470e+02       2.878987299636e-03       0.000000000000e+00       1.046259186392e+00       1.228944270454e-07       1.926954366360e-03      -1.741129086960e-06 
   17       8.670528220474e+02       3.193460004021e-03       0.000000000000e+00       1.107664876735e+00       1.248917289134e-07       1.864119905943e-03      -1.419964136220e-06 
   18       8.785450868140e+02       3.650305203743e-03       0.000000000000e+00       1.168103348946e+00       1.266290262503e-07       1.804366879035e-03      -9.243528941146e-07 
   19       8.906603595988e+02       4.273991356518e-03       0.000000000000e+00       1.229536050093e+00       1.282823061374e-07       1.748094227151e-03      -4.163161173315e-07 
   20       9.031855437720e+02       5.067734972275e-03       0.000000000000e+00       1.294884708270e+00       1.297050928582e-07       1.692787127435e-03      -6.865598293232e-08 
   21       9.164347961080e+02       6.020411735831e-03       0.000000000000e+00       1.364209434995e+00       1.309810244887e-07       1.640974684787e-03       4.692790835395e-08 
   22       9.305522675839e+02       7.113486673183e-03       0.000000000000e+00       1.436251094156e+00       1.320853577673e-07       1.594506108988e-03      -7.642109443150e-08 
   23       9.449767004930e+02       8.348463310166e-03       0.000000000000e+00       1.509813419376e+00       1.330849072852e-07       1.551376007313e-03      -3.753072717706e-07 
   24       9.589171782673e+02       9.730815129005e-03       0.000000000000e+00       1.583158100852e+00       1.339287151675e-07       1.506728797654e-03      -7.297445864853e-07 
   25       9.730514767993e+02       1.125787376026e-02       0.000000000000e+00       1.653373834053e+00       1.346706576992e-07       1.463122069586e-03      -1.040470431219e-06 
   26       9.882816930113e+02       1.292521305741e-02       0.000000000000e+00       1.717094814689e+00       1.352918686110e-07       1.424495205009e-03      -1.213373016481e-06 
   27       1.004195719437e+03       1.474162912726e-02       0.000000000000e+00       1.772770115211e+00       1.358205340712e-07       1.389212375565e-03      -1.238087016881e-06 
   28       1.019957815988e+03       1.672092946940e-02       0.000000000000e+00       1.819598223906e+00       1.362226384925e-07       1.352973292655e-03      -1.145660519001e-06 
   29       1.035640220435e+03       1.887695259464e-02       0.000000000000e+00       1.857737357939e+00       1.365708245401e-07       1.316441498508e-03      -9.740444385676e-07 
   30       1.051562254298e+03       2.122477534337e-02       0.000000000000e+00       1.887903952732e+00       1.368854297523e-07       1.281712289145e-03      -7.811092745011e-07 
   31       1.067956003817e+03       2.377911712422e-02       0.000000000000e+00       1.910980155628e+00       1.370876453841e-07       1.250331752834e-03      -6.366856773707e-07 
   32       1.084765476933e+03       2.654682374024e-02       0.000000000000e+00       1.927183563605e+00       1.372207036671e-07       1.222239859758e-03      -5.643880415266e-07 
   33       1.101749185712e+03       2.953144569907e-02       0.000000000000e+00       1.936604268482e+00       1.373109721510e-07       1.195939380732e-03      -5.710855519437e-07 
   34       1.118634973741e+03       3.273609606944e-02       0.000000000000e+00       1.939209622393e+00       1.373209064348e-07       1.169283133903e-03      -6.551501187755e-07 
   35       1.135529519587e+03       3.616706420782e-02       0.000000000000e+00       1.934099943831e+00       1.372815720966e-07       1.142421659770e-03      -7.885915278138e-07 
   36       1.152641853119e+03       3.983138895499e-02       0.000000000000e+00       1.919973457376e+00       1.372002858397e-07       1.116076510763e-03      -9.233524970324e-07 
   37       1.170139830065e+03       4.373576760027e-02       0.000000000000e+00       1.895528297808e+00       1.370395934034e-07       1.090770744542e-03      -1.006900428981e-06 
   38       1.188038181504e+03       4.788614420954e-02       0.000000000000e+00       1.860225867432e+00       1.368374398738e-07       1.066848285043e-03      -1.031941589273e-06 
   39       1.206265237402e+03       5.228794119174e-02       0.000000000000e+00       1.813772788678e+00       1.366290256221e-07       1.044361148875e-03      -1.008781835009e-06 
   40       1.224685466303e+03       5.694613180056e-02       0.000000000000e+00       1.755919731954e+00       1.364015590571e-07       1.022979057042e-03      -9.540569935594e-07 
   41       1.243148222798e+03       6.186531236815e-02       0.000000000000e+00       1.686507596211e+00       1.361091545842e-07       1.002162478005e-03      -8.882244297171e-07 
   42       1.261667030199e+03       6.705001831492e-02       0.000000000000e+00       1.605618016913e+00       1.357738172910e-07       9.819738511947e-04      -8.241777433313e-07 
   43       1.280288889660e+03       7.250446128000e-02       0.000000000000e+00       1.513476134421e+00       1.354201568520e-07       9.625308529625e-04      -7.747084964366e-07 
   44       1.299042747682e+03       7.823241408102e-02       0.000000000000e+00       1.410416627977e+00       1.350405830036e-07       9.437585269827e-04      -7.558037523791e-07 
   45       1.317946833674e+03       8.423731585510e-02       0.000000000000e+00       1.296729074325e+00       1.346074138424e-07       9.254750303350e-04      -7.819958799925e-07 
   46       1.337038130492e+03       9.052267821203e-02       0.000000000000e+00       1.172125907761e+00       1.341442702035e-07       9.077848208131e-04      -8.490473634356e-07 
   47       1.356348219268e+03       9.709176206901e-02       0.000000000000e+00       1.036124774497e+00       1.336788882376e-07       8.907976112945e-04      -9.441929716292e-07 
   48       1.375893177485e+03       1.039474456121e-01       0.000000000000e+00       8.881912590524e-01       1.332192124985e-07       8.745018023214e-04      -1.049984320929e-06 
   49       1.395672065172e+03       1.110922090572e-01       0.000000000000e+00       7.277351713444e-01       1.327473830586e-07       8.587433199234e-04      -1.143747508672e-06 
   50       1.415672601431e+03       1.185280070645e-01       0.000000000000e+00       5.542149279073e-01       1.322314508596e-07       8.433053545800e-04      -1.203653078783e-06 
   51       1.435893522585e+03       1.262558805095e-01       0.000000000000e+00       3.674927115226e-01       1.316851856597e-07       8.282404373119e-04      -1.231250844661e-06 
   52       1.456325676178e+03       1.342762129901e-01       0.000000000000e+00       1.675692976546e-01       1.311282727005e-07       8.136331563471e-04      -1.237009450341e-06 
   53       1.476944213496e+03       1.425888139235e-01       0.000000000000e+00      -4.551427263075e-02       1.305674632325e-07       7.994992500229e-04      -1.234776296874e-06 
   54       1.497707414124e+03       1.511928980207e-01       0.000000000000e+00      -2.716753187979e-01       1.299930297073e-07       7.857745255998e-04      -1.242129239110e-06 
   55       1.518574058390e+03       1.600875173436e-01       0.000000000000e+00      -5.108442659986e-01       1.293870235421e-07       7.723612097761e-04      -1.276013251131e-06 
   56       1.539563291327e+03       1.692730301902e-01       0.000000000000e+00      -7.631479538088e-01       1.287626772617e-07       7.593152014081e-04      -1.336851231011e-06 
   57       1.560707571322e+03       1.787499611595e-01       0.000000000000e+00      -1.028769458881e+00       1.281372248166e-07       7.467073241554e-04      -1.419226136801e-06 
   58       1.582034982238e+03       1.885185777084e-01       0.000000000000e+00      -1.307896760568e+00       1.275194231317e-07       7.345652665049e-04      -1.515950529381e-06 
   59       1.603568780613e+03       1.985788872592e-01       0.000000000000e+00      -1.600723553515e+00       1.269073770446e-07       7.228671549669e-04      -1.617894218684e-06 
   60       1.625326942862e+03       2.089306343070e-01       0.000000000000e+00      -1.907450060242e+00       1.262861656875e-07       7.115348498067e-04      -1.713805695195e-06 
   61       1.647322735956e+03       2.195725805160e-01       0.000000000000e+00      -2.228218752613e+00       1.256357822854e-07       7.004715153512e-04      -1.792812326297e-06 
   62       1.669567603515e+03       2.305001627279e-01       0.000000000000e+00      -2.562902817960e+00       1.249655079113e-07       6.897056884825e-04      -1.853349294589e-06 
   63       1.692068126976e+03       2.417073017427e-01       0.000000000000e+00      -2.911271437776e+00       1.242900897966e-07       6.792829505682e-04      -1.896888075854e-06 
   64       1.714824647285e+03       2.531870478066e-01       0.000000000000e+00      -3.273049461128e+00       1.236194236998e-07       6.692221471556e-04      -1.925565468732e-06 
   65       1.737830844571e+03       2.649315549691e-01       0.000000000000e+00      -3.647916151956e+00       1.229573544978e-07       6.595118131617e-04      -1.942246161596e-06 
   66       1.761073317819e+03       2.769320554400e-01       0.000000000000e+00      -4.035503936367e+00       1.223003759837e-07       6.501064585157e-04      -1.950587396417e-06 
   67       1.784531164552e+03       2.891788339460e-01       0.000000000000e+00      -4.435397149931e+00       1.216362266619e-07       6.409227142540e-04      -1.955105729635e-06 
   68       1.808183940806e+03       3.016622636716e-01       0.000000000000e+00      -4.847207330864e+00       1.209499632298e-07       6.318711146296e-04      -1.960173051057e-06 
   69       1.832038353569e+03       3.143762151486e-01       0.000000000000e+00      -5.270819615778e+00       1.202487152910e-07       6.229720098609e-04      -1.966487602091e-06 
   70       1.856106246696e+03       3.273152952049e-01       0.000000000000e+00      -5.706194249179e+00       1.195440726448e-07       6.142674785382e-04      -1.973660476460e-06 
   71       1.880396496851e+03       3.404738479767e-01       0.000000000000e+00      -6.153295147380e+00       1.188447289169e-07       6.057870082969e-04      -1.981187628303e-06 
   72       1.904914807517e+03       3.538459564167e-01       0.000000000000e+00      -6.612090603501e+00       1.181558126638e-07       5.975458494665e-04      -1.988439993986e-06 
   73       1.929663502993e+03       3.674254438008e-01       0.000000000000e+00      -7.082553992452e+00       1.174781674086e-07       5.895433093194e-04      -1.994653307484e-06 
   74       1.954641322411e+03       3.812058752363e-01       0.000000000000e+00      -7.564664475931e+00       1.168075791328e-07       5.817609869171e-04      -1.998917609342e-06 
   75       1.979843213732e+03       3.951805591687e-01       0.000000000000e+00      -8.058407707408e+00       1.161339497535e-07       5.741609485553e-04      -2.000166449212e-06 
   76       2.005263871288e+03       4.093420262981e-01       0.000000000000e+00      -8.563721207800e+00       1.154457670479e-07       5.667019825146e-04      -1.997466364336e-06 
   77       2.030909548490e+03       4.236803532928e-01       0.000000000000e+00      -9.080317434193e+00       1.147475045860e-07       5.593978373570e-04      -1.991002758855e-06 
   78       2.056788034980e+03       4.381845347150e-01       0.000000000000e+00      -9.607829577773e+00       1.140468680660e-07       5.522714014336e-04      -1.981342069296e-06 
   79       2.082904977061e+03       4.528429694349e-01       0.000000000000e+00      -1.014586360823e+01       1.133496176142e-07       5.453370328925e-04      -1.969161099003e-06 
   80       2.109263748467e+03       4.676434514220e-01       0.000000000000e+00      -1.069399784417e+01       1.126591780634e-07       5.385996123317e-04      -1.955254146885e-06 
   81       2.135865321135e+03       4.825731605364e-01       0.000000000000e+00      -1.125178252354e+01       1.119762227259e-07       5.320535652244e-04      -1.940540313159e-06 
   82       2.162708135970e+03       4.976186533200e-01       0.000000000000e+00      -1.181873937404e+01       1.112982299737e-07       5.256818541151e-04      -1.926070982115e-06 
   83       2.189787973621e+03       5.127658537877e-01       0.000000000000e+00      -1.239436118357e+01       1.106190119424e-07       5.194549405879e-04      -1.913037481894e-06 
   84       2.217100362140e+03       5.280006445436e-01       0.000000000000e+00      -1.297814833648e+01       1.099316835310e-07       5.133420654295e-04      -1.902538781102e-06 
   85       2.244648541661e+03       5.433107728926e-01       0.000000000000e+00      -1.356972632285e+01       1.092398770737e-07       5.073507444550e-04      -1.894800063822e-06 
   86       2.272436589303e+03       5.586842453068e-01       0.000000000000e+00      -1.416874701274e+01       1.085492779966e-07       5.014950888285e-04      -1.889775045835e-06 
   87       2.300466914347e+03       5.741087560647e-01       0.000000000000e+00      -1.477485361120e+01       1.078642498322e-07       4.957837913019e-04      -1.887365436352e-06 
   88       2.328740171651e+03       5.895716881319e-01       0.000000000000e+00      -1.538768084999e+01       1.071875968938e-07       4.902195891327e-04      -1.887416801573e-06 
   89       2.357255175052e+03       6.050601140413e-01       0.000000000000e+00      -1.600685517925e+01       1.065203123543e-07       4.847987115115e-04      -1.889714318667e-06 
   90       2.386008810776e+03       6.205607967749e-01       0.000000000000e+00      -1.663199495923e+01       1.058613113891e-07       4.795103114965e-04      -1.893978420180e-06 
   91       2.414995950842e+03       6.360601906435e-01       0.000000000000e+00      -1.726271065193e+01       1.052071490393e-07       4.743358824564e-04      -1.899860328880e-06 
   92       2.444209366469e+03       6.515444421685e-01       0.000000000000e+00      -1.789860501284e+01       1.045517224545e-07       4.692486590212e-04      -1.906937483024e-06 
   93       2.473642010298e+03       6.669995482397e-01       0.000000000000e+00      -1.853926604559e+01       1.038887829303e-07       4.642227261134e-04      -1.914787410030e-06 
   94       2.503294443775e+03       6.824118558887e-01       0.000000000000e+00      -1.918424423748e+01       1.032210659149e-07       4.592640823819e-04      -1.923238988149e-06 
   95       2.533168371943e+03       6.977676396596e-01       0.000000000000e+00      -1.983307223866e+01       1.025532938767e-07       4.543854208968e-04      -1.932169008337e-06 
   96       2.563264320807e+03       7.130529540282e-01       0.000000000000e+00      -2.048527188522e+01       1.018894638295e-07       4.495967642910e-04      -1.941426841803e-06 
   97       2.593581583261e+03       7.282536364414e-01       0.000000000000e+00      -2.114035429154e+01       1.012327193710e-07       4.449052058094e-04      -1.950832690933e-06 
   98       2.624118165010e+03       7.433553103569e-01       0.000000000000e+00      -2.179781994262e+01       1.005852154587e-07       4.403146434315e-04      -1.960175799843e-06 
   99       2.654870730492e+03       7.583433882830e-01       0.000000000000e+00      -2.245715878646e+01       9.994797576547e-08       4.358255070663e-04      -1.969212624556e-06 
  100       2.685834548801e+03       7.732030748184e-01       0.000000000000e+00      -2.311785032641e+01       9.932074246019e-08       4.314344788221e-04      -1.977664962816e-06 
  101       2.717003439614e+03       7.879193696916e-01       0.000000000000e+00      -2.377936371350e+01       9.870181825721e-08       4.271342063482e-04      -1.985218043530e-06 
  102       2.748369719109e+03       8.024770708010e-01       0.000000000000e+00      -2.444115783882e+01       9.808790057940e-08       4.229130092509e-04      -1.991518575835e-06 
  103       2.779924145890e+03       8.168607772545e-01       0.000000000000e+00      -2.510268142586e+01       9.747390767885e-08       4.187545785823e-04      -1.996172757800e-06 
  104       2.811657876200e+03       8.310552912850e-01       0.000000000000e+00      -2.576338252861e+01       9.685486141534e-08       4.146435413985e-04      -1.998838143038e-06 
  105       2.843568746833e+03       8.450468792842e-01       0.000000000000e+00      -2.642273828814e+01       9.623253284254e-08       4.105841239529e-04      -1.999525036179e-06 
  106       2.875655744085e+03       8.588221875760e-01       0.000000000000e+00      -2.708022938661e+01       9.561023368098e-08       4.065846851118e-04      -1.998352194157e-06 
  107       2.907917038650e+03       8.723678660861e-01       0.000000000000e+00      -2.773533119381e+01       9.499083886651e-08       4.026520441739e-04      -1.995459218857e-06 
