# Matter power spectrum P(k) at redshift z=0
# for k=1.04793e-05 to 1.4771 h/Mpc,
# number of wavenumbers equal to 615
#    1:k (h/Mpc)              2:P (Mpc/h)^3        
       1.047930124715e-05       4.746168583515e+01 
       2.337620617194e-05       1.031302587949e+02 
       3.631862171380e-05       1.579340534767e+02 
       4.934145719059e-05       2.124195882639e+02 
       6.248020112890e-05       2.669048290493e+02 
       7.577123848662e-05       3.216322562518e+02 
       8.925217804814e-05       3.768099749661e+02 
       1.029621943561e-04       4.326370677808e+02 
       1.169423885777e-04       4.893017955014e+02 
       1.312361727358e-04       5.470032279372e+02 
       1.458896817428e-04       6.059185728043e+02 
       1.609522176117e-04       6.662573183905e+02 
       1.764767300376e-04       7.282184617526e+02 
       1.925203371669e-04       7.920492476158e+02 
       2.091448896970e-04       8.579695389271e+02 
       2.264175803594e-04       9.262517464916e+02 
       2.444115991360e-04       9.971158146528e+02 
       2.632068320493e-04       1.070919309502e+03 
       2.828905977482e-04       1.148000753015e+03 
       3.035584110662e-04       1.228681662688e+03 
       3.253147558634e-04       1.313324682267e+03 
       3.482738403731e-04       1.402368792536e+03 
       3.725602965765e-04       1.496319759967e+03 
       3.983097705709e-04       1.595532368923e+03 
       4.256693335158e-04       1.700368885082e+03 
       4.547976230878e-04       1.811763572000e+03 
       4.858646048552e-04       1.929922449414e+03 
       5.190508242252e-04       2.055741841518e+03 
       5.545460068293e-04       2.189684476663e+03 
       5.925468644012e-04       2.332447597279e+03 
       6.332539818758e-04       2.484753569129e+03 
       6.768677076385e-04       2.646900502754e+03 
       7.235830489634e-04       2.819825667076e+03 
       7.735836902554e-04       3.003563391832e+03 
       8.270353955558e-04       3.198993705423e+03 
       8.840792100033e-04       3.406090568141e+03 
       9.448250069076e-04       3.625112975826e+03 
       1.009346000421e-03       3.855839717194e+03 
       1.077674824925e-03       4.098264351381e+03 
       1.149801654862e-03       4.352037063550e+03 
       1.225674614306e-03       4.616536589410e+03 
       1.305202445062e-03       4.891055891241e+03 
       1.388259125088e-03       5.175005621868e+03 
       1.474689915083e-03       5.467419035962e+03 
       1.477104874446e-03       5.475496453929e+03 
       1.564318199847e-03       5.767233585512e+03 
       1.656952491646e-03       6.073668078311e+03 
       1.752393056022e-03       6.385535487289e+03 
       1.850437769148e-03       6.702026241804e+03 
       1.950886980236e-03       7.022042483749e+03 
       2.053547301007e-03       7.344879656734e+03 
       2.158234358551e-03       7.669618135524e+03 
       2.264774622463e-03       7.995484977286e+03 
       2.373006455589e-03       8.321940091132e+03 
       2.482780548159e-03       8.648176176892e+03 
       2.593959886865e-03       8.973737637885e+03 
       2.706419391732e-03       9.290198677208e+03 
       2.820045330608e-03       9.593857897336e+03 
       2.934734597883e-03       9.924016843144e+03 
       3.050393922906e-03       1.022342241858e+04 
       3.166939055685e-03       1.057646239029e+04 
       3.284293962973e-03       1.087686107151e+04 
       3.402390056620e-03       1.124764322457e+04 
       3.521165467631e-03       1.148864257716e+04 
       3.640564373251e-03       1.179531362209e+04 
       3.760536380047e-03       1.215315196662e+04 
       3.881035963038e-03       1.240055617137e+04 
       4.002021958984e-03       1.270168576606e+04 
       4.123457110782e-03       1.294991294158e+04 
       4.245307659262e-03       1.328818700832e+04 
       4.367542978415e-03       1.353812401161e+04 
       4.490135250021e-03       1.382163366986e+04 
       4.613059173783e-03       1.406743304111e+04 
       4.736291709286e-03       1.437910543802e+04 
       4.859811846370e-03       1.462166862838e+04 
       4.983600400781e-03       1.489119328263e+04 
       5.107639832289e-03       1.512735333576e+04 
       5.231914082712e-03       1.541284961405e+04 
       5.356408431591e-03       1.564428190137e+04 
       5.481109367489e-03       1.589541115703e+04 
       5.606004473108e-03       1.612056905839e+04 
       5.731082322661e-03       1.634483174968e+04 
       5.856332390083e-03       1.659904655806e+04 
       5.981744966838e-03       1.681574696322e+04 
       6.107311088257e-03       1.704386503267e+04 
       6.233022467413e-03       1.725351346553e+04 
       6.358871435722e-03       1.746053843514e+04 
       6.484850889488e-03       1.768787393981e+04 
       6.610954241768e-03       1.788790049192e+04 
       6.737175378951e-03       1.808357169791e+04 
       6.863508621554e-03       1.828675390554e+04 
       6.989948688775e-03       1.847602968396e+04 
       7.116490666410e-03       1.866272692091e+04 
       7.243129977773e-03       1.886029006428e+04 
       7.369862357311e-03       1.903996901977e+04 
       7.496683826634e-03       1.921517812017e+04 
       7.623590672712e-03       1.938765123529e+04 
       7.750579428030e-03       1.956278641266e+04 
       7.877646852486e-03       1.972838780258e+04 
       8.004789916881e-03       1.989044916138e+04 
       8.132005787833e-03       2.005933851318e+04 
       8.259291813978e-03       2.021471210350e+04 
       8.386645513343e-03       2.036661622210e+04 
       8.514064561770e-03       2.051552253958e+04 
       8.641546782297e-03       2.066480042290e+04 
       8.769090135414e-03       2.080715896231e+04 
       8.896692710101e-03       2.094593998709e+04 
       9.024352715588e-03       2.108194449318e+04 
       9.152068473767e-03       2.122141737264e+04 
       9.279838412204e-03       2.135116304661e+04 
       9.407661057690e-03       2.147722252503e+04 
       9.535535030290e-03       2.160052066133e+04 
       9.663459037849e-03       2.172385555357e+04 
       9.791431870914e-03       2.184093826407e+04 
       9.919452398033e-03       2.195519549729e+04 
       1.004751956141e-02       2.206659624709e+04 
       1.017563237286e-02       2.218005381124e+04 
       1.030378991013e-02       2.228559576986e+04 
       1.043199131336e-02       2.238827161167e+04 
       1.056023578193e-02       2.248805736286e+04 
       1.068852257147e-02       2.258494449705e+04 
       1.081685099110e-02       2.268148206016e+04 
       1.094522040081e-02       2.277299345877e+04 
       1.107363020915e-02       2.286174513131e+04 
       1.120207987095e-02       2.294787021205e+04 
       1.133056888528e-02       2.303125156605e+04 
       1.145909679353e-02       2.311606865241e+04 
       1.158766317763e-02       2.319433971337e+04 
       1.171626765838e-02       2.327014895644e+04 
       1.184490989388e-02       2.334333372647e+04 
       1.197358957816e-02       2.341398132786e+04 
       1.210230643979e-02       2.348415133095e+04 
       1.223106024065e-02       2.354994455905e+04 
       1.235985077477e-02       2.361336441685e+04 
       1.248867786729e-02       2.367435198803e+04 
       1.261754137341e-02       2.373293386532e+04 
       1.274644117751e-02       2.378919448861e+04 
       1.287537719228e-02       2.384648065473e+04 
       1.300434935792e-02       2.389830646675e+04 
       1.313335764139e-02       2.394787926291e+04 
       1.326240203577e-02       2.399518523448e+04 
       1.339148255960e-02       2.404031197969e+04 
       1.352059925632e-02       2.408334069506e+04 
       1.364975219372e-02       2.412570478369e+04 
       1.377894146349e-02       2.416452243108e+04 
       1.390816718071e-02       2.420112706571e+04 
       1.403742948353e-02       2.423563665159e+04 
       1.416672853273e-02       2.426830405529e+04 
       1.429606451143e-02       2.429875999907e+04 
       1.442543762477e-02       2.432732769387e+04 
       1.455484809966e-02       2.435675568867e+04 
       1.468429618453e-02       2.438154205689e+04 
       1.477104874446e-02       2.439704348607e+04 
       1.481378214912e-02       2.440439444920e+04 
       1.494330628433e-02       2.442537002375e+04 
       1.507286890205e-02       2.444448907570e+04 
       1.520247033503e-02       2.446164999623e+04 
       1.533211093680e-02       2.447836499925e+04 
       1.546179108157e-02       2.449202568480e+04 
       1.559151116421e-02       2.450395980034e+04 
       1.572127160016e-02       2.451411230419e+04 
       1.585107282551e-02       2.452259770402e+04 
       1.598091529694e-02       2.452923886318e+04 
       1.611079949176e-02       2.453426469032e+04 
       1.624072590801e-02       2.453767663038e+04 
       1.637069506449e-02       2.454197709521e+04 
       1.650070750087e-02       2.454211998785e+04 
       1.663076377776e-02       2.454081161191e+04 
       1.676086447692e-02       2.453780455112e+04 
       1.689101020133e-02       2.453334160595e+04 
       1.702120157537e-02       2.452734952685e+04 
       1.715143924504e-02       2.451973637886e+04 
       1.728172387810e-02       2.451189965598e+04 
       1.741205616434e-02       2.450148072300e+04 
       1.754243681576e-02       2.448963778669e+04 
       1.767286656686e-02       2.447627192017e+04 
       1.780334617490e-02       2.446154260352e+04 
       1.793387642014e-02       2.444551672738e+04 
       1.806445810621e-02       2.442803150209e+04 
       1.819509206035e-02       2.440919166567e+04 
       1.832577913380e-02       2.439135325792e+04 
       1.845652020211e-02       2.437004520493e+04 
       1.858731616555e-02       2.434736809648e+04 
       1.871816794943e-02       2.432347896467e+04 
       1.884907650455e-02       2.429837944143e+04 
       1.898004280760e-02       2.427201119579e+04 
       1.911106786159e-02       2.424450786329e+04 
       1.924215269631e-02       2.421578172673e+04 
       1.937329836878e-02       2.418583740531e+04 
       1.950450596376e-02       2.415593772874e+04 
       1.963577659426e-02       2.412385450617e+04 
       1.976711140202e-02       2.409054121522e+04 
       1.989851155813e-02       2.405625254927e+04 
       2.002997826349e-02       2.402088282441e+04 
       2.016151274950e-02       2.398436172063e+04 
       2.029311627859e-02       2.394694564919e+04 
       2.042479014485e-02       2.390834771731e+04 
       2.055653567472e-02       2.386890946628e+04 
       2.068835422760e-02       2.383052132381e+04 
       2.082024719656e-02       2.378907969449e+04 
       2.095221600906e-02       2.374676717994e+04 
       2.108426212766e-02       2.370347172631e+04 
       2.121638705080e-02       2.365929740803e+04 
       2.134859231356e-02       2.361426224700e+04 
       2.148087948849e-02       2.356823872574e+04 
       2.161325018638e-02       2.352147103367e+04 
       2.174570605722e-02       2.347383806574e+04 
       2.187824879098e-02       2.342525350694e+04 
       2.201088011859e-02       2.337698588894e+04 
       2.214360181283e-02       2.332683729768e+04 
       2.227641568936e-02       2.327602774463e+04 
       2.240932360767e-02       2.322434451798e+04 
       2.254232747212e-02       2.317198610668e+04 
       2.267542923301e-02       2.311881043960e+04 
       2.280863088770e-02       2.306503709203e+04 
       2.294193448169e-02       2.301042810620e+04 
       2.307534210982e-02       2.295520224749e+04 
       2.320885591750e-02       2.289930199659e+04 
       2.334247810187e-02       2.284263020624e+04 
       2.347621091315e-02       2.278738233176e+04 
       2.361005665595e-02       2.272951397140e+04 
       2.374401769061e-02       2.267108703227e+04 
       2.387809643461e-02       2.261198002233e+04 
       2.401229536404e-02       2.255237440152e+04 
       2.414661701507e-02       2.249208994199e+04 
       2.428106398551e-02       2.243133289069e+04 
       2.441563893641e-02       2.237002415951e+04 
       2.455034459369e-02       2.230807224204e+04 
       2.468518374984e-02       2.224570308286e+04 
       2.482015926571e-02       2.218272634975e+04 
       2.495527407225e-02       2.212022528761e+04 
       2.509053117246e-02       2.205633424034e+04 
       2.522593364327e-02       2.199199530558e+04 
       2.536148463758e-02       2.192713180271e+04 
       2.549718738627e-02       2.186184943983e+04 
       2.563304520038e-02       2.179614338360e+04 
       2.576906147332e-02       2.173003548572e+04 
       2.590523968311e-02       2.166341213826e+04 
       2.604158339478e-02       2.159651357570e+04 
       2.617809626277e-02       2.152909923010e+04 
       2.631478203350e-02       2.146138402860e+04 
       2.645164454797e-02       2.139325717624e+04 
       2.658868774443e-02       2.132659853712e+04 
       2.672591566121e-02       2.125781174395e+04 
       2.686333243964e-02       2.118869639687e+04 
       2.700094232699e-02       2.111929162111e+04 
       2.713874967965e-02       2.104949416140e+04 
       2.727675896629e-02       2.097948340865e+04 
       2.741497477125e-02       2.090915944556e+04 
       2.755340179798e-02       2.083850579796e+04 
       2.769204487263e-02       2.076758817361e+04 
       2.783090894777e-02       2.069645494704e+04 
       2.796999910628e-02       2.062501896133e+04 
       2.810932056532e-02       2.055336310567e+04 
       2.824887868052e-02       2.048223678502e+04 
       2.838867895031e-02       2.041016584165e+04 
       2.852872702036e-02       2.033781235313e+04 
       2.866902868831e-02       2.026526160588e+04 
       2.880958990857e-02       2.019254229218e+04 
       2.895041679735e-02       2.011965106746e+04 
       2.909151563793e-02       2.004649258055e+04 
       2.923289288610e-02       1.997321326629e+04 
       2.937455517580e-02       1.989977360097e+04 
       2.951650932506e-02       1.982610868270e+04 
       2.965876234212e-02       1.975239351217e+04 
       2.980132143180e-02       1.967843713447e+04 
       2.994419400221e-02       1.960444009253e+04 
       3.008738767167e-02       1.953178344504e+04 
       3.023091027595e-02       1.945749475778e+04 
       3.037476987582e-02       1.938313281535e+04 
       3.051897476493e-02       1.930866477454e+04 
       3.066353347800e-02       1.923403846059e+04 
       3.080845479946e-02       1.915935652722e+04 
       3.095374777235e-02       1.908461537271e+04 
       3.109942170771e-02       1.900971443309e+04 
       3.124548619436e-02       1.893480596525e+04 
       3.139195110913e-02       1.885980264669e+04 
       3.153882662756e-02       1.878473571514e+04 
       3.168612323512e-02       1.870963635531e+04 
       3.183385173889e-02       1.863441486415e+04 
       3.198202327987e-02       1.855922758706e+04 
       3.213064934583e-02       1.848468485721e+04 
       3.227974178481e-02       1.840936753584e+04 
       3.242931281923e-02       1.833407816753e+04 
       3.257937506075e-02       1.825874363183e+04 
       3.272994152586e-02       1.818337584365e+04 
       3.288102565217e-02       1.810795659584e+04 
       3.303264131566e-02       1.803259433250e+04 
       3.318480284869e-02       1.795714716594e+04 
       3.333752505902e-02       1.788175859636e+04 
       3.349082324978e-02       1.780633434142e+04 
       3.364471324051e-02       1.773087569007e+04 
       3.379921138934e-02       1.765550627948e+04 
       3.395433461632e-02       1.758003307035e+04 
       3.411010042804e-02       1.750463370025e+04 
       3.426652694366e-02       1.743064777940e+04 
       3.442363292225e-02       1.735532642440e+04 
       3.458143779186e-02       1.727999476024e+04 
       3.473996168008e-02       1.720467895405e+04 
       3.489922544641e-02       1.712940555320e+04 
       3.505925071657e-02       1.705415797914e+04 
       3.522005991874e-02       1.697893328202e+04 
       3.538167632203e-02       1.690377158090e+04 
       3.554412407722e-02       1.682858513121e+04 
       3.570742826001e-02       1.675349648216e+04 
       3.587161491693e-02       1.667837791359e+04 
       3.603671111410e-02       1.660332049441e+04 
       3.620274498914e-02       1.652831677684e+04 
       3.636974580627e-02       1.645336214758e+04 
       3.653774401515e-02       1.637900783758e+04 
       3.670677131343e-02       1.630409811991e+04 
       3.687686071354e-02       1.622926884525e+04 
       3.704804661397e-02       1.615441259934e+04 
       3.722036487542e-02       1.607963011343e+04 
       3.739385290212e-02       1.600489913527e+04 
       3.756854972902e-02       1.593015780063e+04 
       3.774449611501e-02       1.585550805367e+04 
       3.792173464297e-02       1.578082447387e+04 
       3.810030982701e-02       1.570621084101e+04 
       3.828026822778e-02       1.563163837581e+04 
       3.846165857636e-02       1.555703006334e+04 
       3.864453190759e-02       1.548251930730e+04 
       3.882894170377e-02       1.540794756052e+04 
       3.901494404954e-02       1.533464151621e+04 
       3.920259779926e-02       1.526014603801e+04 
       3.939196475775e-02       1.518570744099e+04 
       3.958310987601e-02       1.511124976049e+04 
       3.977610146326e-02       1.503678164297e+04 
       3.997101141693e-02       1.496234081595e+04 
       4.016791547245e-02       1.488785333069e+04 
       4.036689347507e-02       1.481341361301e+04 
       4.056802967571e-02       1.473891276327e+04 
       4.077141305377e-02       1.466439176934e+04 
       4.097713766964e-02       1.458989216799e+04 
       4.118530305026e-02       1.451533778078e+04 
       4.139601461156e-02       1.444067434475e+04 
       4.160938412193e-02       1.436651398180e+04 
       4.182553021158e-02       1.429178445859e+04 
       4.204457893334e-02       1.421694789687e+04 
       4.226666438102e-02       1.414208309083e+04 
       4.249192937271e-02       1.406706683229e+04 
       4.272052620696e-02       1.399200216893e+04 
       4.295261750153e-02       1.391675980706e+04 
       4.318837712536e-02       1.384143075630e+04 
       4.342799123643e-02       1.376594352115e+04 
       4.367165944001e-02       1.369030745879e+04 
       4.391959608401e-02       1.361444766487e+04 
       4.417203171136e-02       1.353845673672e+04 
       4.442921469198e-02       1.346312773881e+04 
       4.469141306151e-02       1.338669596501e+04 
       4.495891659817e-02       1.330996726198e+04 
       4.523203917509e-02       1.323300562355e+04 
       4.551112143200e-02       1.315568687077e+04 
       4.579653381878e-02       1.307809091894e+04 
       4.608868007300e-02       1.300008107892e+04 
       4.638800120608e-02       1.292172834000e+04 
       4.669498008754e-02       1.284294590835e+04 
       4.701014673523e-02       1.276365168560e+04 
       4.733408444224e-02       1.268390665361e+04 
       4.766743689903e-02       1.260400264793e+04 
       4.801091650484e-02       1.252309643347e+04 
       4.836531410568e-02       1.244151713620e+04 
       4.873151045170e-02       1.235921311832e+04 
       4.911048973542e-02       1.227614466628e+04 
       4.950335566036e-02       1.219221815533e+04 
       4.991135060025e-02       1.210729230608e+04 
       5.033587855057e-02       1.202134963464e+04 
       5.077853275391e-02       1.193425539580e+04 
       5.124112911035e-02       1.184668058886e+04 
       5.172574677597e-02       1.175685680011e+04 
       5.223477772290e-02       1.166545953418e+04 
       5.277098749935e-02       1.157222521321e+04 
       5.333759000296e-02       1.147695582387e+04 
       5.393833977100e-02       1.137935004768e+04 
       5.457764607735e-02       1.127943296907e+04 
       5.526071393106e-02       1.117603288424e+04 
       5.599371769115e-02       1.106897738130e+04 
       5.678401299075e-02       1.095760574219e+04 
       5.764039104678e-02       1.084109039196e+04 
       5.857337433213e-02       1.071894955699e+04 
       5.959554047504e-02       1.058845200323e+04 
